1.00,74.00
1.00,122.00
1.00,127.00
1.00,122.00
1.00,119.00
1.00,115.00
1.00,112.00
1.00,106.00
1.00,99.00
1.00,101.00
1.00,98.00
1.00,101.00
1.00,104.00
1.00,110.00
1.00,115.00
1.00,118.00
1.00,122.00
1.00,120.00
1.00,112.00
1.00,109.00
1.00,104.00
1.00,103.00
1.00,99.00
1.00,99.00
1.00,100.00
1.00,107.00
1.00,113.00
1.00,116.00
1.00,122.00
1.00,123.00
1.00,118.00
1.00,116.00
1.00,111.00
1.00,108.00
1.00,105.00
1.00,101.00
1.00,97.00
1.00,103.00
1.00,107.00
1.00,112.00
1.00,117.00
1.00,123.00
1.00,124.00
1.00,124.00
1.00,120.00
1.00,118.00
1.00,115.00
1.00,106.00
1.00,109.00
1.00,106.00
1.00,106.00
1.00,107.00
1.00,116.00
1.00,124.00
1.00,127.00
1.00,132.00
1.00,130.00
1.00,126.00
1.00,124.00
1.00,116.00
1.00,117.00
1.00,111.00
1.00,109.00
1.00,111.00
1.00,111.00
1.00,116.00
1.00,123.00
1.00,126.00
1.00,130.00
1.00,130.00
1.00,127.00
1.00,124.00
1.00,123.00
1.00,116.00
1.00,112.00
1.00,108.00
1.00,105.00
1.00,110.00
1.00,110.00
1.00,117.00
1.00,124.00
1.00,126.00
1.00,126.00
1.00,127.00
1.00,126.00
1.00,119.00
1.00,116.00
1.00,111.00
1.00,107.00
1.00,103.00
1.00,103.00
1.00,107.00
1.00,113.00
1.00,116.00
1.00,120.00
1.00,122.00
1.00,124.00
1.00,120.00
1.00,116.00
1.00,114.00
1.00,106.00
1.00,103.00
1.00,101.00
1.00,101.00
1.00,102.00
1.00,107.00
1.00,113.00
1.00,119.00
1.00,123.00
1.00,124.00
1.00,119.00
1.00,118.00
1.00,109.00
1.00,110.00
1.00,103.00
1.00,98.00
1.00,96.00
1.00,95.00
1.00,97.00
1.00,106.00
1.00,110.00
1.00,114.00
1.00,118.00
1.00,118.00
1.00,113.00
1.00,109.00
1.00,103.00
1.00,101.00
1.00,96.00
1.00,96.00
1.00,92.00
1.00,92.00
1.00,99.00
1.00,102.00
1.00,107.00
1.00,113.00
1.00,112.00
1.00,107.00
1.00,105.00
1.00,104.00
1.00,101.00
1.00,95.00
1.00,92.00
1.00,85.00
1.00,86.00
1.00,87.00
1.00,90.00
1.00,98.00
1.00,99.00
1.00,102.00
1.00,104.00
1.00,101.00
1.00,100.00
1.00,95.00
1.00,93.00
1.00,89.00
1.00,82.00
1.00,83.00
1.00,82.00
1.00,82.00
1.00,89.00
1.00,94.00
1.00,97.00
1.00,96.00
1.00,98.00
1.00,95.00
1.00,91.00
1.00,87.00
1.00,84.00
1.00,80.00
1.00,77.00
1.00,75.00
1.00,75.00
1.00,76.00
1.00,85.00
1.00,85.00
1.00,91.00
1.00,93.00
1.00,93.00
1.00,88.00
1.00,87.00
1.00,88.00
1.00,83.00
1.00,79.00
1.00,74.00
1.00,74.00
1.00,73.00
1.00,75.00
1.00,80.00
1.00,82.00
1.00,89.00
1.00,91.00
1.00,91.00
1.00,90.00
1.00,84.00
1.00,82.00
1.00,77.00
1.00,71.00
1.00,71.00
1.00,66.00
1.00,68.00
1.00,72.00
1.00,79.00
1.00,84.00
1.00,87.00
1.00,90.00
1.00,90.00
1.00,89.00
1.00,85.00
1.00,81.00
1.00,77.00
1.00,72.00
1.00,69.00
1.00,70.00
1.00,66.00
1.00,70.00
1.00,76.00
1.00,82.00
1.00,84.00
1.00,89.00
1.00,91.00
1.00,88.00
1.00,86.00
1.00,83.00
1.00,77.00
1.00,73.00
1.00,71.00
1.00,71.00
1.00,70.00
1.00,74.00
1.00,78.00
1.00,85.00
1.00,92.00
1.00,92.00
1.00,94.00
1.00,90.00
1.00,89.00
1.00,86.00
1.00,78.00
1.00,79.00
1.00,76.00
1.00,76.00
1.00,79.00
1.00,80.00
1.00,88.00
1.00,91.00
1.00,97.00
1.00,101.00
1.00,101.00
1.00,100.00
1.00,98.00
1.00,98.00
1.00,93.00
1.00,88.00
1.00,89.00
1.00,85.00
1.00,84.00
1.00,87.00
1.00,95.00
1.00,100.00
1.00,104.00
1.00,110.00
1.00,107.00
1.00,107.00
1.00,104.00
1.00,99.00
1.00,97.00
1.00,91.00
1.00,88.00
1.00,87.00
1.00,88.00
1.00,90.00
1.00,95.00
1.00,99.00
1.00,104.00
1.00,104.00
1.00,106.00
1.00,104.00
1.00,102.00
1.00,98.00
1.00,93.00
1.00,88.00
1.00,82.00
1.00,83.00
1.00,81.00
1.00,81.00
1.00,85.00
1.00,89.00
1.00,94.00
1.00,97.00
1.00,100.00
1.00,98.00
1.00,94.00
1.00,95.00
1.00,83.00
1.00,82.00
1.00,76.00
1.00,74.00
1.00,71.00
1.00,68.00
1.00,76.00
1.00,77.00
1.00,85.00
1.00,88.00
1.00,90.00
1.00,89.00
1.00,86.00
1.00,88.00
1.00,80.00
1.00,78.00
1.00,75.00
1.00,70.00
1.00,69.00
1.00,68.00
1.00,71.00
1.00,78.00
1.00,82.00
1.00,85.00
1.00,88.00
1.00,90.00
1.00,86.00
1.00,84.00
1.00,80.00
1.00,76.00
1.00,77.00
1.00,71.00
1.00,68.00
1.00,67.00
1.00,67.00
1.00,72.00
1.00,75.00
1.00,79.00
1.00,83.00
1.00,87.00
1.00,86.00
1.00,82.00
1.00,79.00
1.00,74.00
1.00,70.00
1.00,65.00
1.00,61.00
1.00,60.00
1.00,58.00
1.00,62.00
1.00,66.00
1.00,67.00
1.00,72.00
1.00,73.00
1.00,75.00
1.00,71.00
1.00,61.00
1.00,62.00
1.00,55.00
1.00,51.00
1.00,44.00
1.00,42.00
1.00,42.00
1.00,45.00
1.00,48.00
1.00,49.00
1.00,54.00
1.00,56.00
1.00,57.00
1.00,57.00
1.00,53.00
1.00,49.00
1.00,41.00
1.00,39.00
1.00,38.00
1.00,32.00
1.00,33.00
1.00,34.00
1.00,37.00
1.00,42.00
1.00,49.00
1.00,51.00
1.00,53.00
1.00,53.00
1.00,52.00
1.00,48.00
1.00,45.00
1.00,42.00
1.00,37.00
1.00,34.00
1.00,30.00
1.00,29.00
1.00,31.00
1.00,38.00
1.00,42.00
1.00,47.00
1.00,52.00
1.00,51.00
1.00,54.00
1.00,50.00
1.00,46.00
1.00,44.00
1.00,37.00
1.00,37.00
1.00,32.00
1.00,34.00
1.00,32.00
1.00,34.00
1.00,41.00
1.00,43.00
1.00,51.00
1.00,51.00
1.00,54.00
1.00,50.00
1.00,49.00
1.00,47.00
1.00,40.00
1.00,39.00
1.00,35.00
1.00,35.00
1.00,30.00
1.00,31.00
1.00,39.00
1.00,44.00
1.00,51.00
1.00,52.00
1.00,56.00
1.00,63.00
1.00,72.00
1.00,91.00
1.00,117.00
1.00,157.00
1.00,199.00
1.00,250.00
1.00,302.00
1.00,352.00
1.00,388.00
1.00,419.00
1.00,437.00
1.00,445.00
1.00,448.00
1.00,450.00
1.00,448.00
1.00,444.00
1.00,441.00
1.00,435.00
1.00,433.00
1.00,431.00
1.00,428.00
1.00,433.00
1.00,430.00
1.00,434.00
1.00,439.00
1.00,445.00
1.00,450.00
1.00,453.00
1.00,457.00
1.00,454.00
1.00,453.00
1.00,450.00
1.00,445.00
1.00,445.00
1.00,442.00
1.00,444.00
1.00,442.00
1.00,442.00
1.00,449.00
1.00,450.00
1.00,457.00
1.00,459.00
1.00,459.00
1.00,462.00
1.00,458.00
1.00,459.00
1.00,452.00
1.00,452.00
1.00,448.00
1.00,442.00
1.00,444.00
1.00,440.00
1.00,438.00
1.00,441.00
1.00,444.00
1.00,450.00
1.00,452.00
1.00,459.00
1.00,458.00
1.00,459.00
1.00,459.00
1.00,454.00
1.00,453.00
1.00,448.00
1.00,445.00
1.00,442.00
1.00,441.00
1.00,441.00
1.00,440.00
1.00,446.00
1.00,452.00
1.00,456.00
1.00,463.00
1.00,464.00
1.00,465.00
1.00,463.00
1.00,460.00
1.00,457.00
1.00,452.00
1.00,451.00
1.00,446.00
1.00,445.00
1.00,444.00
1.00,446.00
1.00,450.00
1.00,456.00
1.00,461.00
1.00,464.00
1.00,469.00
1.00,467.00
1.00,465.00
1.00,466.00
1.00,462.00
1.00,459.00
1.00,455.00
1.00,453.00
1.00,449.00
1.00,447.00
1.00,448.00
1.00,449.00
1.00,454.00
1.00,459.00
1.00,461.00
1.00,464.00
1.00,466.00
1.00,468.00
1.00,465.00
1.00,462.00
1.00,458.00
1.00,451.00
1.00,441.00
1.00,428.00
1.00,411.00
1.00,397.00
1.00,391.00
1.00,400.00
1.00,407.00
1.00,416.00
1.00,421.00
1.00,425.00
1.00,431.00
1.00,426.00
1.00,418.00
1.00,417.00
1.00,415.00
1.00,410.00
1.00,406.00
1.00,403.00
1.00,401.00
1.00,400.00
1.00,404.00
1.00,404.00
1.00,412.00
1.00,416.00
1.00,419.00
1.00,423.00
1.00,423.00
1.00,422.00
1.00,418.00
1.00,416.00
1.00,412.00
1.00,409.00
1.00,408.00
1.00,404.00
1.00,404.00
1.00,403.00
1.00,406.00
1.00,411.00
1.00,418.00
1.00,423.00
1.00,426.00
1.00,427.00
1.00,428.00
1.00,424.00
1.00,424.00
1.00,418.00
1.00,416.00
1.00,414.00
1.00,411.00
1.00,413.00
1.00,416.00
1.00,428.00
1.00,448.00
1.00,470.00
1.00,492.00
1.00,511.00
1.00,527.00
1.00,536.00
1.00,535.00
1.00,532.00
1.00,525.00
1.00,519.00
1.00,516.00
1.00,515.00
1.00,512.00
1.00,510.00
1.00,508.00
1.00,511.00
1.00,516.00
1.00,522.00
1.00,526.00
1.00,532.00
1.00,532.00
1.00,537.00
1.00,535.00
1.00,535.00
1.00,532.00
1.00,527.00
1.00,528.00
1.00,521.00
1.00,520.00
1.00,516.00
1.00,514.00
1.00,518.00
1.00,520.00
1.00,526.00
1.00,529.00
1.00,535.00
1.00,540.00
1.00,541.00
1.00,543.00
1.00,540.00
1.00,539.00
1.00,538.00
1.00,531.00
1.00,529.00
1.00,524.00
1.00,525.00
1.00,522.00
1.00,524.00
1.00,526.00
1.00,532.00
1.00,538.00
1.00,540.00
1.00,545.00
1.00,547.00
1.00,542.00
1.00,544.00
1.00,541.00
1.00,541.00
1.00,535.00
1.00,531.00
1.00,530.00
1.00,526.00
1.00,519.00
1.00,498.00
1.00,461.00
1.00,427.00
1.00,377.00
1.00,328.00
1.00,272.00
1.00,233.00
1.00,200.00
1.00,177.00
1.00,171.00
1.00,162.00
1.00,163.00
1.00,161.00
1.00,159.00
1.00,160.00
1.00,159.00
1.00,156.00
1.00,159.00
1.00,162.00
1.00,169.00
1.00,171.00
1.00,177.00
1.00,179.00
1.00,176.00
1.00,176.00
1.00,172.00
1.00,168.00
1.00,164.00
1.00,164.00
1.00,159.00
1.00,156.00
1.00,153.00
1.00,155.00
1.00,155.00
1.00,161.00
1.00,166.00
1.00,168.00
1.00,173.00
1.00,176.00
1.00,174.00
1.00,176.00
1.00,170.00
1.00,167.00
1.00,162.00
1.00,162.00
1.00,158.00
1.00,153.00
1.00,151.00
1.00,153.00
1.00,150.00
1.00,156.00
1.00,158.00
1.00,162.00
1.00,169.00
1.00,172.00
1.00,172.00
1.00,167.00
1.00,154.00
1.00,140.00
1.00,120.00
1.00,103.00
1.00,88.00
1.00,81.00
1.00,72.00
1.00,74.00
1.00,75.00
1.00,77.00
1.00,83.00
1.00,86.00
1.00,91.00
1.00,94.00
1.00,94.00
1.00,94.00
1.00,90.00
1.00,87.00
1.00,85.00
1.00,79.00
1.00,78.00
1.00,74.00
1.00,71.00
1.00,67.00
1.00,67.00
1.00,68.00
1.00,70.00
1.00,75.00
1.00,78.00
1.00,80.00
1.00,83.00
1.00,83.00
1.00,85.00
1.00,80.00
1.00,76.00
1.00,75.00
1.00,70.00
1.00,69.00
1.00,62.00
1.00,64.00
1.00,60.00
1.00,60.00
1.00,62.00
1.00,64.00
1.00,74.00
1.00,77.00
1.00,80.00
1.00,84.00
1.00,86.00
1.00,82.00
1.00,77.00
1.00,76.00
1.00,75.00
1.00,70.00
1.00,66.00
1.00,64.00
1.00,65.00
1.00,65.00
1.00,67.00
1.00,70.00
1.00,75.00
1.00,82.00
1.00,84.00
1.00,87.00
1.00,89.00
1.00,89.00
1.00,87.00
1.00,82.00
1.00,84.00
1.00,80.00
1.00,75.00
1.00,75.00
1.00,70.00
1.00,70.00
1.00,73.00
1.00,74.00
1.00,81.00
1.00,84.00
1.00,90.00
1.00,92.00
1.00,93.00
1.00,94.00
1.00,94.00
1.00,96.00
1.00,90.00
1.00,87.00
1.00,83.00
1.00,78.00
1.00,75.00
1.00,74.00
1.00,76.00
1.00,83.00
1.00,91.00
1.00,98.00
1.00,107.00
1.00,116.00
1.00,119.00
1.00,126.00
1.00,124.00
1.00,123.00
1.00,123.00
1.00,117.00
1.00,114.00
1.00,113.00
1.00,112.00
1.00,110.00
1.00,107.00
1.00,108.00
1.00,107.00
1.00,111.00
1.00,120.00
1.00,119.00
1.00,126.00
1.00,129.00
1.00,132.00
1.00,131.00
1.00,131.00
1.00,129.00
1.00,123.00
1.00,122.00
1.00,117.00
1.00,114.00
1.00,113.00
1.00,110.00
1.00,110.00
1.00,111.00
1.00,114.00
1.00,120.00
1.00,124.00
1.00,125.00
1.00,123.00
1.00,124.00
1.00,120.00
1.00,122.00
1.00,124.00
1.00,122.00
1.00,120.00
1.00,117.00
1.00,117.00
1.00,114.00
1.00,112.00
1.00,114.00
1.00,111.00
1.00,112.00
1.00,119.00
1.00,120.00
1.00,124.00
1.00,127.00
1.00,129.00
1.00,130.00
1.00,128.00
1.00,128.00
1.00,122.00
1.00,118.00
1.00,113.00
1.00,112.00
1.00,109.00
1.00,106.00
1.00,106.00
1.00,109.00
1.00,110.00
1.00,115.00
1.00,120.00
1.00,123.00
1.00,124.00
1.00,125.00
1.00,127.00
1.00,123.00
1.00,122.00
1.00,120.00
1.00,116.00
1.00,112.00
1.00,114.00
1.00,110.00
1.00,109.00
1.00,108.00
1.00,105.00
1.00,109.00
1.00,112.00
1.00,117.00
1.00,121.00
1.00,123.00
1.00,124.00
1.00,124.00
1.00,122.00
1.00,121.00
1.00,120.00
1.00,113.00
1.00,110.00
1.00,109.00
1.00,108.00
1.00,103.00
1.00,104.00
1.00,102.00
1.00,105.00
1.00,107.00
1.00,112.00
1.00,116.00
1.00,116.00
1.00,120.00
1.00,123.00
1.00,118.00
1.00,117.00
1.00,114.00
1.00,112.00
1.00,110.00
1.00,107.00
1.00,104.00
1.00,104.00
1.00,99.00
1.00,97.00
1.00,100.00
1.00,103.00
1.00,108.00
1.00,114.00
1.00,115.00
1.00,118.00
1.00,119.00
1.00,121.00
1.00,119.00
1.00,118.00
1.00,114.00
1.00,111.00
1.00,107.00
1.00,105.00
1.00,101.00
1.00,99.00
1.00,97.00
1.00,98.00
1.00,102.00
1.00,105.00
1.00,110.00
1.00,114.00
1.00,117.00
1.00,119.00
1.00,120.00
1.00,118.00
1.00,116.00
1.00,117.00
1.00,112.00
1.00,110.00
1.00,106.00
1.00,102.00
1.00,101.00
1.00,96.00
1.00,87.00
1.00,65.00
1.00,30.00
1.00,-8.00
1.00,-58.00
1.00,-107.00
1.00,-161.00
1.00,-225.00
1.00,-302.00
1.00,-364.00
1.00,-393.00
1.00,-407.00
1.00,-411.00
1.00,-415.00
1.00,-417.00
1.00,-419.00
1.00,-427.00
1.00,-424.00
1.00,-429.00
1.00,-431.00
1.00,-429.00
1.00,-424.00
1.00,-420.00
1.00,-417.00
1.00,-417.00
1.00,-416.00
1.00,-421.00
1.00,-422.00
1.00,-429.00
1.00,-432.00
1.00,-435.00
1.00,-438.00
1.00,-444.00
1.00,-448.00
1.00,-447.00
1.00,-449.00
1.00,-449.00
1.00,-446.00
1.00,-444.00
1.00,-438.00
1.00,-439.00
1.00,-437.00
1.00,-435.00
1.00,-445.00
1.00,-464.00
1.00,-488.00
1.00,-504.00
1.00,-516.00
1.00,-527.00
1.00,-529.00
1.00,-530.00
1.00,-530.00
1.00,-530.00
1.00,-529.00
1.00,-530.00
1.00,-529.00
1.00,-525.00
1.00,-523.00
1.00,-520.00
1.00,-518.00
1.00,-517.00
1.00,-512.00
1.00,-516.00
1.00,-519.00
1.00,-522.00
1.00,-523.00
1.00,-526.00
1.00,-535.00
1.00,-537.00
1.00,-536.00
1.00,-543.00
1.00,-542.00
1.00,-544.00
1.00,-544.00
1.00,-538.00
1.00,-532.00
1.00,-531.00
1.00,-529.00
1.00,-527.00
1.00,-529.00
1.00,-528.00
1.00,-527.00
1.00,-533.00
1.00,-537.00
1.00,-546.00
1.00,-558.00
1.00,-567.00
1.00,-556.00
1.00,-544.00
1.00,-534.00
1.00,-521.00
1.00,-509.00
1.00,-489.00
1.00,-469.00
1.00,-452.00
1.00,-442.00
1.00,-438.00
1.00,-434.00
1.00,-439.00
1.00,-446.00
1.00,-448.00
1.00,-454.00
1.00,-455.00
1.00,-458.00
1.00,-465.00
1.00,-467.00
1.00,-473.00
1.00,-471.00
1.00,-475.00
1.00,-474.00
1.00,-472.00
1.00,-470.00
1.00,-467.00
1.00,-464.00
1.00,-461.00
1.00,-460.00
1.00,-458.00
1.00,-457.00
1.00,-459.00
1.00,-463.00
1.00,-467.00
1.00,-469.00
1.00,-470.00
1.00,-476.00
1.00,-477.00
1.00,-481.00
1.00,-477.00
1.00,-480.00
1.00,-481.00
1.00,-475.00
1.00,-472.00
1.00,-465.00
1.00,-461.00
1.00,-459.00
1.00,-458.00
1.00,-458.00
1.00,-461.00
1.00,-464.00
1.00,-466.00
1.00,-469.00
1.00,-472.00
1.00,-477.00
1.00,-483.00
1.00,-482.00
1.00,-486.00
1.00,-489.00
1.00,-486.00
1.00,-485.00
1.00,-480.00
1.00,-477.00
1.00,-472.00
1.00,-467.00
1.00,-465.00
1.00,-459.00
1.00,-462.00
1.00,-462.00
1.00,-463.00
1.00,-466.00
1.00,-465.00
1.00,-456.00
1.00,-410.00
1.00,-294.00
1.00,-141.00
1.00,-46.00
1.00,2.00
1.00,49.00
1.00,70.00
1.00,84.00
1.00,92.00
1.00,95.00
1.00,97.00
1.00,98.00
1.00,101.00
1.00,104.00
1.00,104.00
1.00,103.00
1.00,100.00
1.00,100.00
1.00,98.00
1.00,92.00
1.00,89.00
1.00,88.00
1.00,90.00
1.00,89.00
1.00,90.00
1.00,91.00
1.00,93.00
1.00,99.00
1.00,101.00
1.00,106.00
1.00,109.00
1.00,110.00
1.00,113.00
1.00,111.00
1.00,110.00
1.00,110.00
1.00,110.00
1.00,107.00
1.00,106.00
1.00,99.00
1.00,99.00
1.00,96.00
1.00,98.00
1.00,95.00
1.00,98.00
1.00,100.00
1.00,106.00
1.00,113.00
1.00,114.00
1.00,118.00
1.00,119.00
1.00,123.00
1.00,129.00
1.00,146.00
1.00,158.00
1.00,169.00
1.00,172.00
1.00,171.00
1.00,164.00
1.00,160.00
1.00,157.00
1.00,156.00
1.00,154.00
1.00,156.00
1.00,158.00
1.00,159.00
1.00,166.00
1.00,170.00
1.00,175.00
1.00,180.00
1.00,181.00
1.00,181.00
1.00,178.00
1.00,179.00
1.00,176.00
1.00,176.00
1.00,172.00
1.00,166.00
1.00,164.00
1.00,164.00
1.00,163.00
1.00,162.00
1.00,165.00
1.00,166.00
1.00,170.00
1.00,175.00
1.00,178.00
1.00,183.00
1.00,184.00
1.00,186.00
1.00,187.00
1.00,183.00
1.00,185.00
1.00,181.00
1.00,177.00
1.00,177.00
1.00,170.00
1.00,170.00
1.00,168.00
1.00,167.00
1.00,166.00
1.00,169.00
1.00,184.00
1.00,211.00
1.00,247.00
1.00,283.00
1.00,314.00
1.00,349.00
1.00,374.00
1.00,391.00
1.00,398.00
1.00,399.00
1.00,396.00
1.00,390.00
1.00,383.00
1.00,379.00
1.00,377.00
1.00,377.00
1.00,377.00
1.00,376.00
1.00,374.00
1.00,378.00
1.00,377.00
1.00,380.00
1.00,386.00
1.00,389.00
1.00,390.00
1.00,394.00
1.00,392.00
1.00,394.00
1.00,391.00
1.00,389.00
1.00,386.00
1.00,383.00
1.00,382.00
1.00,377.00
1.00,373.00
1.00,370.00
1.00,367.00
1.00,367.00
1.00,366.00
1.00,370.00
1.00,373.00
1.00,379.00
1.00,382.00
1.00,383.00
1.00,386.00
1.00,386.00
1.00,393.00
1.00,402.00
1.00,425.00
1.00,454.00
1.00,489.00
1.00,528.00
1.00,560.00
1.00,584.00
1.00,595.00
1.00,591.00
1.00,585.00
1.00,574.00
1.00,572.00
1.00,571.00
1.00,573.00
1.00,578.00
1.00,583.00
1.00,586.00
1.00,587.00
1.00,592.00
1.00,592.00
1.00,592.00
1.00,590.00
1.00,583.00
1.00,585.00
1.00,582.00
1.00,576.00
1.00,577.00
1.00,575.00
1.00,571.00
1.00,567.00
1.00,567.00
1.00,568.00
1.00,569.00
1.00,574.00
1.00,578.00
1.00,582.00
1.00,585.00
1.00,588.00
1.00,590.00
1.00,591.00
1.00,592.00
1.00,588.00
1.00,585.00
1.00,588.00
1.00,587.00
1.00,584.00
1.00,583.00
1.00,580.00
1.00,579.00
1.00,573.00
1.00,577.00
1.00,574.00
1.00,577.00
1.00,580.00
1.00,585.00
1.00,595.00
1.00,608.00
1.00,617.00
1.00,627.00
1.00,630.00
1.00,632.00
1.00,627.00
1.00,629.00
1.00,628.00
1.00,629.00
1.00,627.00
1.00,623.00
1.00,622.00
1.00,620.00
1.00,619.00
1.00,618.00
1.00,616.00
1.00,618.00
1.00,621.00
1.00,624.00
1.00,615.00
1.00,589.00
1.00,549.00
1.00,499.00
1.00,450.00
1.00,395.00
1.00,357.00
1.00,316.00
1.00,288.00
1.00,270.00
1.00,260.00
1.00,258.00
1.00,257.00
1.00,258.00
1.00,258.00
1.00,254.00
1.00,252.00
1.00,251.00
1.00,250.00
1.00,254.00
1.00,257.00
1.00,262.00
1.00,262.00
1.00,265.00
1.00,270.00
1.00,270.00
1.00,270.00
1.00,264.00
1.00,265.00
1.00,260.00
1.00,258.00
1.00,254.00
1.00,252.00
1.00,251.00
1.00,245.00
1.00,245.00
1.00,245.00
1.00,244.00
1.00,247.00
1.00,245.00
1.00,252.00
1.00,253.00
1.00,254.00
1.00,258.00
1.00,259.00
1.00,258.00
1.00,259.00
1.00,257.00
1.00,252.00
1.00,246.00
1.00,234.00
1.00,212.00
1.00,188.00
1.00,169.00
1.00,151.00
1.00,139.00
1.00,134.00
1.00,132.00
1.00,135.00
1.00,140.00
1.00,141.00
1.00,144.00
1.00,148.00
1.00,151.00
1.00,150.00
1.00,155.00
1.00,155.00
1.00,156.00
1.00,153.00
1.00,150.00
1.00,150.00
1.00,146.00
1.00,146.00
1.00,145.00
1.00,144.00
1.00,142.00
1.00,136.00
1.00,138.00
1.00,138.00
1.00,137.00
1.00,139.00
1.00,142.00
1.00,144.00
1.00,148.00
1.00,152.00
1.00,153.00
1.00,156.00
1.00,158.00
1.00,156.00
1.00,155.00
1.00,154.00
1.00,151.00
1.00,150.00
1.00,145.00
1.00,146.00
1.00,143.00
1.00,140.00
1.00,136.00
1.00,139.00
1.00,135.00
1.00,136.00
1.00,140.00
1.00,141.00
1.00,145.00
1.00,152.00
1.00,153.00
1.00,156.00
1.00,157.00
1.00,159.00
1.00,159.00
1.00,158.00
1.00,157.00
1.00,155.00
1.00,155.00
1.00,148.00
1.00,148.00
1.00,143.00
1.00,143.00
1.00,143.00
1.00,137.00
1.00,137.00
1.00,139.00
1.00,140.00
1.00,142.00
1.00,148.00
1.00,150.00
1.00,152.00
1.00,155.00
1.00,160.00
1.00,163.00
1.00,162.00
1.00,164.00
1.00,160.00
1.00,158.00
1.00,155.00
1.00,156.00
1.00,152.00
1.00,147.00
1.00,149.00
1.00,146.00
1.00,144.00
1.00,143.00
1.00,143.00
1.00,145.00
1.00,148.00
1.00,151.00
1.00,154.00
1.00,161.00
1.00,163.00
1.00,166.00
1.00,169.00
1.00,168.00
1.00,169.00
1.00,165.00
1.00,161.00
1.00,161.00
1.00,161.00
1.00,160.00
1.00,154.00
1.00,154.00
1.00,152.00
1.00,148.00
1.00,149.00
1.00,147.00
1.00,151.00
1.00,149.00
1.00,152.00
1.00,158.00
1.00,163.00
1.00,165.00
1.00,172.00
1.00,198.00
1.00,230.00
1.00,257.00
1.00,296.00
1.00,338.00
1.00,372.00
1.00,404.00
1.00,428.00
1.00,442.00
1.00,440.00
1.00,440.00
1.00,436.00
1.00,433.00
1.00,432.00
1.00,432.00
1.00,435.00
1.00,437.00
1.00,445.00
1.00,447.00
1.00,453.00
1.00,454.00
1.00,457.00
1.00,460.00
1.00,462.00
1.00,464.00
1.00,463.00
1.00,462.00
1.00,462.00
1.00,458.00
1.00,454.00
1.00,453.00
1.00,451.00
1.00,447.00
1.00,446.00
1.00,444.00
1.00,445.00
1.00,448.00
1.00,464.00
1.00,502.00
1.00,556.00
1.00,602.00
1.00,642.00
1.00,665.00
1.00,678.00
1.00,682.00
1.00,673.00
1.00,665.00
1.00,660.00
1.00,655.00
1.00,655.00
1.00,653.00
1.00,652.00
1.00,651.00
1.00,648.00
1.00,647.00
1.00,642.00
1.00,641.00
1.00,639.00
1.00,638.00
1.00,640.00
1.00,639.00
1.00,648.00
1.00,649.00
1.00,651.00
1.00,653.00
1.00,656.00
1.00,659.00
1.00,658.00
1.00,662.00
1.00,658.00
1.00,656.00
1.00,655.00
1.00,652.00
1.00,648.00
1.00,648.00
1.00,642.00
1.00,643.00
1.00,639.00
1.00,635.00
1.00,632.00
1.00,631.00
1.00,625.00
1.00,615.00
1.00,609.00
1.00,609.00
1.00,612.00
1.00,614.00
1.00,619.00
1.00,624.00
1.00,628.00
1.00,627.00
1.00,625.00
1.00,624.00
1.00,621.00
1.00,621.00
1.00,618.00
1.00,612.00
1.00,612.00
1.00,610.00
1.00,605.00
1.00,606.00
1.00,604.00
1.00,607.00
1.00,602.00
1.00,603.00
1.00,608.00
1.00,609.00
1.00,614.00
1.00,609.00
1.00,585.00
1.00,547.00
1.00,495.00
1.00,430.00
1.00,358.00
1.00,299.00
1.00,233.00
1.00,180.00
1.00,132.00
1.00,92.00
1.00,63.00
1.00,46.00
1.00,41.00
1.00,41.00
1.00,38.00
1.00,42.00
1.00,44.00
1.00,43.00
1.00,45.00
1.00,45.00
1.00,46.00
1.00,49.00
1.00,56.00
1.00,60.00
1.00,61.00
1.00,63.00
1.00,60.00
1.00,63.00
1.00,61.00
1.00,56.00
1.00,55.00
1.00,50.00
1.00,48.00
1.00,45.00
1.00,42.00
1.00,37.00
1.00,36.00
1.00,35.00
1.00,32.00
1.00,33.00
1.00,32.00
1.00,32.00
1.00,32.00
1.00,33.00
1.00,39.00
1.00,42.00
1.00,43.00
1.00,45.00
1.00,38.00
1.00,19.00
1.00,-30.00
1.00,-107.00
1.00,-232.00
1.00,-334.00
1.00,-390.00
1.00,-401.00
1.00,-405.00
1.00,-409.00
1.00,-407.00
1.00,-410.00
1.00,-412.00
1.00,-411.00
1.00,-414.00
1.00,-416.00
1.00,-414.00
1.00,-417.00
1.00,-416.00
1.00,-414.00
1.00,-409.00
1.00,-407.00
1.00,-405.00
1.00,-402.00
1.00,-402.00
1.00,-401.00
1.00,-401.00
1.00,-398.00
1.00,-402.00
1.00,-405.00
1.00,-408.00
1.00,-409.00
1.00,-412.00
1.00,-416.00
1.00,-419.00
1.00,-419.00
1.00,-424.00
1.00,-427.00
1.00,-432.00
1.00,-429.00
1.00,-432.00
1.00,-435.00
1.00,-433.00
1.00,-435.00
1.00,-433.00
1.00,-428.00
1.00,-426.00
1.00,-422.00
1.00,-425.00
1.00,-420.00
1.00,-417.00
1.00,-418.00
1.00,-416.00
1.00,-420.00
1.00,-421.00
1.00,-422.00
1.00,-426.00
1.00,-427.00
1.00,-431.00
1.00,-430.00
1.00,-438.00
1.00,-440.00
1.00,-444.00
1.00,-404.00
1.00,-299.00
1.00,-149.00
1.00,-28.00
1.00,44.00
1.00,100.00
1.00,144.00
1.00,168.00
1.00,184.00
1.00,183.00
1.00,183.00
1.00,181.00
1.00,178.00
1.00,179.00
1.00,178.00
1.00,177.00
1.00,179.00
1.00,174.00
1.00,173.00
1.00,168.00
1.00,167.00
1.00,164.00
1.00,163.00
1.00,161.00
1.00,161.00
1.00,160.00
1.00,158.00
1.00,158.00
1.00,159.00
1.00,160.00
1.00,162.00
1.00,166.00
1.00,172.00
1.00,174.00
1.00,173.00
1.00,175.00
1.00,179.00
1.00,181.00
1.00,181.00
1.00,178.00
1.00,176.00
1.00,172.00
1.00,171.00
1.00,166.00
1.00,163.00
1.00,161.00
1.00,161.00
1.00,161.00
1.00,157.00
1.00,158.00
1.00,154.00
1.00,155.00
1.00,154.00
1.00,153.00
1.00,159.00
1.00,159.00
1.00,162.00
1.00,168.00
1.00,168.00
1.00,168.00
1.00,168.00
1.00,169.00
1.00,170.00
1.00,168.00
1.00,163.00
1.00,162.00
1.00,159.00
1.00,159.00
1.00,154.00
1.00,152.00
1.00,150.00
1.00,147.00
1.00,143.00
1.00,140.00
1.00,137.00
1.00,133.00
1.00,136.00
1.00,134.00
1.00,133.00
1.00,134.00
1.00,135.00
1.00,141.00
1.00,140.00
1.00,143.00
1.00,144.00
1.00,144.00
1.00,144.00
1.00,144.00
1.00,144.00
1.00,141.00
1.00,137.00
1.00,134.00
1.00,134.00
1.00,133.00
1.00,127.00
1.00,129.00
1.00,122.00
1.00,120.00
1.00,118.00
1.00,115.00
1.00,115.00
1.00,113.00
1.00,114.00
1.00,117.00
1.00,116.00
1.00,124.00
1.00,123.00
1.00,123.00
1.00,128.00
1.00,129.00
1.00,131.00
1.00,129.00
1.00,136.00
1.00,131.00
1.00,132.00
1.00,130.00
1.00,127.00
1.00,124.00
1.00,123.00
1.00,118.00
1.00,115.00
1.00,114.00
1.00,113.00
1.00,108.00
1.00,108.00
1.00,106.00
1.00,105.00
1.00,108.00
1.00,108.00
1.00,108.00
1.00,112.00
1.00,113.00
1.00,117.00
1.00,118.00
1.00,120.00
1.00,122.00
1.00,123.00
1.00,125.00
1.00,123.00
1.00,122.00
1.00,119.00
1.00,120.00
1.00,114.00
1.00,111.00
1.00,112.00
1.00,105.00
1.00,104.00
1.00,101.00
1.00,100.00
1.00,95.00
1.00,95.00
1.00,94.00
1.00,96.00
1.00,95.00
1.00,97.00
1.00,94.00
1.00,98.00
1.00,95.00
1.00,97.00
1.00,97.00
1.00,97.00
1.00,96.00
1.00,97.00
1.00,100.00
1.00,100.00
1.00,97.00
1.00,98.00
1.00,98.00
1.00,98.00
1.00,94.00
1.00,96.00
1.00,96.00
1.00,92.00
1.00,93.00
1.00,89.00
1.00,89.00
1.00,88.00
1.00,87.00
1.00,90.00
1.00,91.00
1.00,90.00
1.00,91.00
1.00,90.00
1.00,95.00
1.00,96.00
1.00,98.00
1.00,97.00
1.00,102.00
1.00,103.00
1.00,102.00
1.00,100.00
1.00,103.00
1.00,101.00
1.00,99.00
1.00,94.00
1.00,93.00
1.00,91.00
1.00,88.00
1.00,85.00
1.00,81.00
1.00,79.00
1.00,76.00
1.00,77.00
1.00,71.00
1.00,72.00
1.00,72.00
1.00,71.00
1.00,73.00
1.00,73.00
1.00,79.00
1.00,79.00
1.00,85.00
1.00,87.00
1.00,89.00
1.00,93.00
1.00,93.00
1.00,97.00
1.00,99.00
1.00,100.00
1.00,100.00
1.00,97.00
1.00,97.00
1.00,97.00
1.00,94.00
1.00,90.00
1.00,88.00
1.00,85.00
1.00,88.00
1.00,100.00
1.00,133.00
1.00,176.00
1.00,240.00
1.00,309.00
1.00,375.00
1.00,435.00
1.00,477.00
1.00,501.00
1.00,509.00
1.00,505.00
1.00,507.00
1.00,507.00
1.00,512.00
1.00,513.00
1.00,515.00
1.00,518.00
1.00,521.00
1.00,522.00
1.00,525.00
1.00,521.00
1.00,519.00
1.00,518.00
1.00,519.00
1.00,516.00
1.00,514.00
1.00,509.00
1.00,512.00
1.00,510.00
1.00,506.00
1.00,508.00
1.00,503.00
1.00,505.00
1.00,507.00
1.00,507.00
1.00,506.00
1.00,507.00
1.00,510.00
1.00,512.00
1.00,509.00
1.00,499.00
1.00,465.00
1.00,420.00
1.00,366.00
1.00,312.00
1.00,254.00
1.00,200.00
1.00,166.00
1.00,149.00
1.00,142.00
1.00,140.00
1.00,145.00
1.00,145.00
1.00,144.00
1.00,141.00
1.00,136.00
1.00,132.00
1.00,132.00
1.00,129.00
1.00,128.00
1.00,126.00
1.00,125.00
1.00,124.00
1.00,125.00
1.00,126.00
1.00,127.00
1.00,132.00
1.00,133.00
1.00,133.00
1.00,138.00
1.00,139.00
1.00,144.00
1.00,140.00
1.00,142.00
1.00,143.00
1.00,143.00
1.00,143.00
1.00,138.00
1.00,138.00
1.00,135.00
1.00,133.00
1.00,130.00
1.00,127.00
1.00,127.00
1.00,121.00
1.00,115.00
1.00,102.00
1.00,95.00
1.00,94.00
1.00,91.00
1.00,96.00
1.00,96.00
1.00,94.00
1.00,98.00
1.00,98.00
1.00,103.00
2.00,10.00
2.00,25.00
2.00,27.00
2.00,26.00
2.00,28.00
2.00,31.00
2.00,33.00
2.00,33.00
2.00,31.00
2.00,31.00
2.00,28.00
2.00,25.00
2.00,24.00
2.00,22.00
2.00,23.00
2.00,23.00
2.00,28.00
2.00,26.00
2.00,32.00
2.00,32.00
2.00,31.00
2.00,33.00
2.00,30.00
2.00,28.00
2.00,22.00
2.00,20.00
2.00,20.00
2.00,18.00
2.00,19.00
2.00,20.00
2.00,21.00
2.00,24.00
2.00,23.00
2.00,23.00
2.00,24.00
2.00,24.00
2.00,22.00
2.00,17.00
2.00,18.00
2.00,15.00
2.00,14.00
2.00,17.00
2.00,17.00
2.00,21.00
2.00,17.00
2.00,21.00
2.00,24.00
2.00,21.00
2.00,22.00
2.00,18.00
2.00,16.00
2.00,13.00
2.00,12.00
2.00,11.00
2.00,10.00
2.00,12.00
2.00,12.00
2.00,14.00
2.00,16.00
2.00,16.00
2.00,20.00
2.00,17.00
2.00,18.00
2.00,15.00
2.00,13.00
2.00,10.00
2.00,8.00
2.00,11.00
2.00,7.00
2.00,10.00
2.00,12.00
2.00,12.00
2.00,14.00
2.00,16.00
2.00,15.00
2.00,14.00
2.00,12.00
2.00,10.00
2.00,7.00
2.00,8.00
2.00,8.00
2.00,10.00
2.00,7.00
2.00,10.00
2.00,11.00
2.00,11.00
2.00,17.00
2.00,16.00
2.00,14.00
2.00,14.00
2.00,11.00
2.00,10.00
2.00,6.00
2.00,8.00
2.00,7.00
2.00,7.00
2.00,10.00
2.00,11.00
2.00,16.00
2.00,16.00
2.00,16.00
2.00,18.00
2.00,16.00
2.00,16.00
2.00,11.00
2.00,11.00
2.00,10.00
2.00,10.00
2.00,12.00
2.00,13.00
2.00,16.00
2.00,20.00
2.00,22.00
2.00,24.00
2.00,22.00
2.00,24.00
2.00,21.00
2.00,17.00
2.00,17.00
2.00,14.00
2.00,13.00
2.00,15.00
2.00,18.00
2.00,23.00
2.00,20.00
2.00,24.00
2.00,27.00
2.00,24.00
2.00,27.00
2.00,27.00
2.00,20.00
2.00,19.00
2.00,20.00
2.00,17.00
2.00,15.00
2.00,17.00
2.00,16.00
2.00,17.00
2.00,21.00
2.00,20.00
2.00,28.00
2.00,29.00
2.00,27.00
2.00,25.00
2.00,24.00
2.00,23.00
2.00,22.00
2.00,22.00
2.00,17.00
2.00,17.00
2.00,22.00
2.00,21.00
2.00,26.00
2.00,28.00
2.00,35.00
2.00,33.00
2.00,32.00
2.00,34.00
2.00,30.00
2.00,27.00
2.00,31.00
2.00,29.00
2.00,26.00
2.00,27.00
2.00,29.00
2.00,33.00
2.00,34.00
2.00,37.00
2.00,41.00
2.00,41.00
2.00,40.00
2.00,39.00
2.00,38.00
2.00,35.00
2.00,39.00
2.00,32.00
2.00,30.00
2.00,29.00
2.00,28.00
2.00,32.00
2.00,34.00
2.00,41.00
2.00,43.00
2.00,42.00
2.00,39.00
2.00,40.00
2.00,37.00
2.00,36.00
2.00,32.00
2.00,30.00
2.00,32.00
2.00,32.00
2.00,35.00
2.00,38.00
2.00,38.00
2.00,41.00
2.00,44.00
2.00,43.00
2.00,44.00
2.00,42.00
2.00,41.00
2.00,37.00
2.00,39.00
2.00,39.00
2.00,37.00
2.00,41.00
2.00,42.00
2.00,45.00
2.00,46.00
2.00,48.00
2.00,51.00
2.00,50.00
2.00,51.00
2.00,51.00
2.00,47.00
2.00,45.00
2.00,45.00
2.00,43.00
2.00,45.00
2.00,47.00
2.00,49.00
2.00,48.00
2.00,52.00
2.00,54.00
2.00,55.00
2.00,56.00
2.00,56.00
2.00,56.00
2.00,53.00
2.00,49.00
2.00,50.00
2.00,46.00
2.00,48.00
2.00,48.00
2.00,51.00
2.00,52.00
2.00,51.00
2.00,55.00
2.00,56.00
2.00,55.00
2.00,57.00
2.00,56.00
2.00,54.00
2.00,49.00
2.00,49.00
2.00,45.00
2.00,44.00
2.00,47.00
2.00,52.00
2.00,50.00
2.00,52.00
2.00,58.00
2.00,57.00
2.00,56.00
2.00,58.00
2.00,59.00
2.00,59.00
2.00,57.00
2.00,59.00
2.00,60.00
2.00,61.00
2.00,64.00
2.00,66.00
2.00,66.00
2.00,71.00
2.00,69.00
2.00,73.00
2.00,71.00
2.00,71.00
2.00,70.00
2.00,69.00
2.00,64.00
2.00,67.00
2.00,66.00
2.00,64.00
2.00,61.00
2.00,67.00
2.00,66.00
2.00,69.00
2.00,71.00
2.00,75.00
2.00,72.00
2.00,72.00
2.00,75.00
2.00,69.00
2.00,66.00
2.00,65.00
2.00,65.00
2.00,65.00
2.00,65.00
2.00,70.00
2.00,71.00
2.00,72.00
2.00,75.00
2.00,78.00
2.00,80.00
2.00,78.00
2.00,84.00
2.00,81.00
2.00,73.00
2.00,78.00
2.00,78.00
2.00,81.00
2.00,78.00
2.00,80.00
2.00,83.00
2.00,83.00
2.00,86.00
2.00,87.00
2.00,93.00
2.00,91.00
2.00,90.00
2.00,91.00
2.00,86.00
2.00,84.00
2.00,83.00
2.00,82.00
2.00,83.00
2.00,84.00
2.00,84.00
2.00,84.00
2.00,85.00
2.00,90.00
2.00,92.00
2.00,96.00
2.00,96.00
2.00,96.00
2.00,92.00
2.00,87.00
2.00,86.00
2.00,83.00
2.00,85.00
2.00,84.00
2.00,85.00
2.00,85.00
2.00,86.00
2.00,90.00
2.00,90.00
2.00,94.00
2.00,93.00
2.00,91.00
2.00,91.00
2.00,87.00
2.00,88.00
2.00,85.00
2.00,84.00
2.00,88.00
2.00,91.00
2.00,94.00
2.00,96.00
2.00,99.00
2.00,101.00
2.00,103.00
2.00,105.00
2.00,104.00
2.00,104.00
2.00,103.00
2.00,101.00
2.00,104.00
2.00,102.00
2.00,102.00
2.00,106.00
2.00,109.00
2.00,112.00
2.00,113.00
2.00,117.00
2.00,120.00
2.00,120.00
2.00,121.00
2.00,119.00
2.00,119.00
2.00,116.00
2.00,113.00
2.00,112.00
2.00,111.00
2.00,111.00
2.00,110.00
2.00,113.00
2.00,114.00
2.00,115.00
2.00,118.00
2.00,116.00
2.00,118.00
2.00,116.00
2.00,115.00
2.00,113.00
2.00,111.00
2.00,111.00
2.00,109.00
2.00,109.00
2.00,110.00
2.00,109.00
2.00,112.00
2.00,112.00
2.00,113.00
2.00,117.00
2.00,117.00
2.00,119.00
2.00,114.00
2.00,114.00
2.00,110.00
2.00,108.00
2.00,106.00
2.00,104.00
2.00,106.00
2.00,106.00
2.00,107.00
2.00,109.00
2.00,111.00
2.00,113.00
2.00,112.00
2.00,112.00
2.00,111.00
2.00,110.00
2.00,107.00
2.00,103.00
2.00,105.00
2.00,104.00
2.00,103.00
2.00,100.00
2.00,103.00
2.00,111.00
2.00,129.00
2.00,166.00
2.00,212.00
2.00,258.00
2.00,311.00
2.00,372.00
2.00,433.00
2.00,492.00
2.00,538.00
2.00,566.00
2.00,570.00
2.00,571.00
2.00,569.00
2.00,570.00
2.00,568.00
2.00,569.00
2.00,570.00
2.00,565.00
2.00,566.00
2.00,561.00
2.00,558.00
2.00,554.00
2.00,547.00
2.00,544.00
2.00,540.00
2.00,537.00
2.00,535.00
2.00,533.00
2.00,534.00
2.00,533.00
2.00,536.00
2.00,538.00
2.00,547.00
2.00,566.00
2.00,587.00
2.00,609.00
2.00,623.00
2.00,624.00
2.00,626.00
2.00,623.00
2.00,620.00
2.00,618.00
2.00,618.00
2.00,619.00
2.00,616.00
2.00,617.00
2.00,619.00
2.00,623.00
2.00,622.00
2.00,620.00
2.00,622.00
2.00,615.00
2.00,614.00
2.00,612.00
2.00,612.00
2.00,611.00
2.00,611.00
2.00,611.00
2.00,610.00
2.00,612.00
2.00,613.00
2.00,615.00
2.00,617.00
2.00,613.00
2.00,615.00
2.00,614.00
2.00,610.00
2.00,610.00
2.00,606.00
2.00,605.00
2.00,602.00
2.00,602.00
2.00,602.00
2.00,602.00
2.00,604.00
2.00,603.00
2.00,605.00
2.00,606.00
2.00,608.00
2.00,606.00
2.00,602.00
2.00,603.00
2.00,599.00
2.00,595.00
2.00,595.00
2.00,594.00
2.00,592.00
2.00,592.00
2.00,592.00
2.00,589.00
2.00,589.00
2.00,593.00
2.00,594.00
2.00,598.00
2.00,597.00
2.00,597.00
2.00,599.00
2.00,595.00
2.00,593.00
2.00,590.00
2.00,592.00
2.00,590.00
2.00,585.00
2.00,585.00
2.00,587.00
2.00,590.00
2.00,591.00
2.00,588.00
2.00,588.00
2.00,564.00
2.00,521.00
2.00,471.00
2.00,431.00
2.00,418.00
2.00,406.00
2.00,404.00
2.00,398.00
2.00,393.00
2.00,396.00
2.00,400.00
2.00,404.00
2.00,404.00
2.00,408.00
2.00,407.00
2.00,409.00
2.00,412.00
2.00,410.00
2.00,407.00
2.00,405.00
2.00,405.00
2.00,405.00
2.00,398.00
2.00,400.00
2.00,399.00
2.00,396.00
2.00,398.00
2.00,399.00
2.00,398.00
2.00,399.00
2.00,401.00
2.00,404.00
2.00,400.00
2.00,404.00
2.00,401.00
2.00,400.00
2.00,398.00
2.00,398.00
2.00,401.00
2.00,401.00
2.00,406.00
2.00,404.00
2.00,409.00
2.00,413.00
2.00,415.00
2.00,421.00
2.00,424.00
2.00,428.00
2.00,427.00
2.00,426.00
2.00,431.00
2.00,446.00
2.00,481.00
2.00,531.00
2.00,587.00
2.00,638.00
2.00,667.00
2.00,691.00
2.00,699.00
2.00,702.00
2.00,701.00
2.00,700.00
2.00,702.00
2.00,703.00
2.00,704.00
2.00,705.00
2.00,699.00
2.00,699.00
2.00,693.00
2.00,691.00
2.00,690.00
2.00,685.00
2.00,681.00
2.00,679.00
2.00,682.00
2.00,683.00
2.00,684.00
2.00,687.00
2.00,686.00
2.00,689.00
2.00,689.00
2.00,692.00
2.00,690.00
2.00,685.00
2.00,686.00
2.00,682.00
2.00,682.00
2.00,679.00
2.00,681.00
2.00,683.00
2.00,680.00
2.00,683.00
2.00,683.00
2.00,686.00
2.00,688.00
2.00,685.00
2.00,686.00
2.00,684.00
2.00,683.00
2.00,680.00
2.00,678.00
2.00,677.00
2.00,677.00
2.00,672.00
2.00,671.00
2.00,671.00
2.00,673.00
2.00,673.00
2.00,675.00
2.00,677.00
2.00,683.00
2.00,681.00
2.00,681.00
2.00,679.00
2.00,677.00
2.00,665.00
2.00,607.00
2.00,493.00
2.00,365.00
2.00,285.00
2.00,238.00
2.00,188.00
2.00,148.00
2.00,112.00
2.00,95.00
2.00,96.00
2.00,101.00
2.00,103.00
2.00,102.00
2.00,97.00
2.00,98.00
2.00,95.00
2.00,93.00
2.00,90.00
2.00,90.00
2.00,91.00
2.00,87.00
2.00,92.00
2.00,91.00
2.00,91.00
2.00,95.00
2.00,97.00
2.00,100.00
2.00,99.00
2.00,102.00
2.00,102.00
2.00,103.00
2.00,104.00
2.00,100.00
2.00,96.00
2.00,97.00
2.00,94.00
2.00,95.00
2.00,93.00
2.00,97.00
2.00,98.00
2.00,98.00
2.00,98.00
2.00,103.00
2.00,107.00
2.00,106.00
2.00,108.00
2.00,106.00
2.00,104.00
2.00,103.00
2.00,100.00
2.00,101.00
2.00,99.00
2.00,99.00
2.00,101.00
2.00,101.00
2.00,106.00
2.00,103.00
2.00,95.00
2.00,82.00
2.00,62.00
2.00,47.00
2.00,34.00
2.00,34.00
2.00,33.00
2.00,37.00
2.00,38.00
2.00,37.00
2.00,37.00
2.00,35.00
2.00,34.00
2.00,38.00
2.00,35.00
2.00,38.00
2.00,33.00
2.00,37.00
2.00,40.00
2.00,39.00
2.00,42.00
2.00,41.00
2.00,43.00
2.00,40.00
2.00,38.00
2.00,37.00
2.00,35.00
2.00,36.00
2.00,33.00
2.00,32.00
2.00,32.00
2.00,33.00
2.00,37.00
2.00,36.00
2.00,38.00
2.00,40.00
2.00,42.00
2.00,40.00
2.00,40.00
2.00,38.00
2.00,35.00
2.00,30.00
2.00,29.00
2.00,28.00
2.00,24.00
2.00,24.00
2.00,24.00
2.00,24.00
2.00,23.00
2.00,26.00
2.00,22.00
2.00,24.00
2.00,26.00
2.00,24.00
2.00,24.00
2.00,21.00
2.00,20.00
2.00,15.00
2.00,10.00
2.00,10.00
2.00,11.00
2.00,11.00
2.00,9.00
2.00,4.00
2.00,7.00
2.00,5.00
2.00,8.00
2.00,7.00
2.00,15.00
2.00,16.00
2.00,16.00
2.00,17.00
2.00,15.00
2.00,14.00
2.00,11.00
2.00,9.00
2.00,6.00
2.00,6.00
2.00,6.00
2.00,5.00
2.00,7.00
2.00,8.00
2.00,10.00
2.00,9.00
2.00,13.00
2.00,15.00
2.00,18.00
2.00,27.00
2.00,37.00
2.00,35.00
2.00,34.00
2.00,30.00
2.00,30.00
2.00,31.00
2.00,25.00
2.00,24.00
2.00,18.00
2.00,17.00
2.00,17.00
2.00,17.00
2.00,20.00
2.00,17.00
2.00,19.00
2.00,19.00
2.00,16.00
2.00,13.00
2.00,9.00
2.00,10.00
2.00,6.00
2.00,1.00
2.00,1.00
2.00,-3.00
2.00,-2.00
2.00,-4.00
2.00,-5.00
2.00,-4.00
2.00,-4.00
2.00,-4.00
2.00,-5.00
2.00,-3.00
2.00,-4.00
2.00,-4.00
2.00,-7.00
2.00,-11.00
2.00,-11.00
2.00,-17.00
2.00,-19.00
2.00,-19.00
2.00,-19.00
2.00,-18.00
2.00,-18.00
2.00,-18.00
2.00,-20.00
2.00,-22.00
2.00,-26.00
2.00,-28.00
2.00,-27.00
2.00,-26.00
2.00,-19.00
2.00,-21.00
2.00,-25.00
2.00,-24.00
2.00,-29.00
2.00,-30.00
2.00,-32.00
2.00,-35.00
2.00,-32.00
2.00,-34.00
2.00,-32.00
2.00,-32.00
2.00,-33.00
2.00,-28.00
2.00,-27.00
2.00,-22.00
2.00,-24.00
2.00,-22.00
2.00,-24.00
2.00,-28.00
2.00,-27.00
2.00,-31.00
2.00,-34.00
2.00,-35.00
2.00,-35.00
2.00,-39.00
2.00,-43.00
2.00,-43.00
2.00,-40.00
2.00,-40.00
2.00,-35.00
2.00,-36.00
2.00,-35.00
2.00,-34.00
2.00,-31.00
2.00,-30.00
2.00,-32.00
2.00,-35.00
2.00,-41.00
2.00,-42.00
2.00,-41.00
2.00,-45.00
2.00,-45.00
2.00,-48.00
2.00,-47.00
2.00,-46.00
2.00,-46.00
2.00,-44.00
2.00,-42.00
2.00,-42.00
2.00,-40.00
2.00,-40.00
2.00,-41.00
2.00,-44.00
2.00,-46.00
2.00,-47.00
2.00,-52.00
2.00,-54.00
2.00,-55.00
2.00,-55.00
2.00,-56.00
2.00,-54.00
2.00,-53.00
2.00,-52.00
2.00,-50.00
2.00,-53.00
2.00,-49.00
2.00,-49.00
2.00,-48.00
2.00,-47.00
2.00,-49.00
2.00,-51.00
2.00,-53.00
2.00,-57.00
2.00,-56.00
2.00,-59.00
2.00,-59.00
2.00,-61.00
2.00,-59.00
2.00,-58.00
2.00,-56.00
2.00,-56.00
2.00,-56.00
2.00,-54.00
2.00,-52.00
2.00,-46.00
2.00,-49.00
2.00,-50.00
2.00,-50.00
2.00,-52.00
2.00,-55.00
2.00,-54.00
2.00,-55.00
2.00,-56.00
2.00,-58.00
2.00,-57.00
2.00,-53.00
2.00,-53.00
2.00,-52.00
2.00,-54.00
2.00,-47.00
2.00,-47.00
2.00,-46.00
2.00,-45.00
2.00,-48.00
2.00,-47.00
2.00,-53.00
2.00,-63.00
2.00,-97.00
2.00,-149.00
2.00,-205.00
2.00,-274.00
2.00,-344.00
2.00,-409.00
2.00,-449.00
2.00,-480.00
2.00,-512.00
2.00,-523.00
2.00,-526.00
2.00,-518.00
2.00,-509.00
2.00,-507.00
2.00,-507.00
2.00,-512.00
2.00,-514.00
2.00,-520.00
2.00,-524.00
2.00,-525.00
2.00,-527.00
2.00,-527.00
2.00,-528.00
2.00,-529.00
2.00,-527.00
2.00,-525.00
2.00,-528.00
2.00,-527.00
2.00,-526.00
2.00,-526.00
2.00,-526.00
2.00,-526.00
2.00,-529.00
2.00,-531.00
2.00,-531.00
2.00,-536.00
2.00,-536.00
2.00,-539.00
2.00,-538.00
2.00,-539.00
2.00,-539.00
2.00,-540.00
2.00,-544.00
2.00,-561.00
2.00,-580.00
2.00,-589.00
2.00,-593.00
2.00,-598.00
2.00,-594.00
2.00,-596.00
2.00,-592.00
2.00,-589.00
2.00,-589.00
2.00,-591.00
2.00,-593.00
2.00,-589.00
2.00,-592.00
2.00,-592.00
2.00,-593.00
2.00,-591.00
2.00,-587.00
2.00,-591.00
2.00,-589.00
2.00,-588.00
2.00,-586.00
2.00,-586.00
2.00,-586.00
2.00,-588.00
2.00,-590.00
2.00,-592.00
2.00,-594.00
2.00,-598.00
2.00,-601.00
2.00,-603.00
2.00,-604.00
2.00,-607.00
2.00,-610.00
2.00,-607.00
2.00,-608.00
2.00,-606.00
2.00,-604.00
2.00,-605.00
2.00,-603.00
2.00,-595.00
2.00,-577.00
2.00,-559.00
2.00,-547.00
2.00,-554.00
2.00,-560.00
2.00,-549.00
2.00,-538.00
2.00,-529.00
2.00,-515.00
2.00,-496.00
2.00,-481.00
2.00,-477.00
2.00,-476.00
2.00,-482.00
2.00,-483.00
2.00,-484.00
2.00,-481.00
2.00,-478.00
2.00,-476.00
2.00,-478.00
2.00,-475.00
2.00,-481.00
2.00,-479.00
2.00,-485.00
2.00,-484.00
2.00,-485.00
2.00,-488.00
2.00,-487.00
2.00,-490.00
2.00,-490.00
2.00,-490.00
2.00,-488.00
2.00,-484.00
2.00,-488.00
2.00,-486.00
2.00,-485.00
2.00,-485.00
2.00,-486.00
2.00,-484.00
2.00,-486.00
2.00,-486.00
2.00,-485.00
2.00,-486.00
2.00,-492.00
2.00,-491.00
2.00,-492.00
2.00,-494.00
2.00,-494.00
2.00,-496.00
2.00,-495.00
2.00,-495.00
2.00,-492.00
2.00,-492.00
2.00,-489.00
2.00,-487.00
2.00,-484.00
2.00,-484.00
2.00,-486.00
2.00,-483.00
2.00,-485.00
2.00,-489.00
2.00,-491.00
2.00,-490.00
2.00,-492.00
2.00,-494.00
2.00,-494.00
2.00,-495.00
2.00,-494.00
2.00,-492.00
2.00,-493.00
2.00,-491.00
2.00,-491.00
2.00,-488.00
2.00,-477.00
2.00,-451.00
2.00,-415.00
2.00,-372.00
2.00,-326.00
2.00,-276.00
2.00,-228.00
2.00,-189.00
2.00,-169.00
2.00,-168.00
2.00,-167.00
2.00,-174.00
2.00,-172.00
2.00,-172.00
2.00,-169.00
2.00,-168.00
2.00,-170.00
2.00,-164.00
2.00,-164.00
2.00,-161.00
2.00,-161.00
2.00,-160.00
2.00,-160.00
2.00,-160.00
2.00,-159.00
2.00,-160.00
2.00,-160.00
2.00,-162.00
2.00,-164.00
2.00,-163.00
2.00,-166.00
2.00,-165.00
2.00,-166.00
2.00,-166.00
2.00,-162.00
2.00,-163.00
2.00,-161.00
2.00,-158.00
2.00,-157.00
2.00,-150.00
2.00,-149.00
2.00,-151.00
2.00,-150.00
2.00,-152.00
2.00,-149.00
2.00,-155.00
2.00,-154.00
2.00,-155.00
2.00,-154.00
2.00,-155.00
2.00,-157.00
2.00,-156.00
2.00,-157.00
2.00,-152.00
2.00,-142.00
2.00,-130.00
2.00,-111.00
2.00,-102.00
2.00,-98.00
2.00,-98.00
2.00,-100.00
2.00,-103.00
2.00,-103.00
2.00,-104.00
2.00,-109.00
2.00,-113.00
2.00,-113.00
2.00,-112.00
2.00,-115.00
2.00,-118.00
2.00,-116.00
2.00,-117.00
2.00,-114.00
2.00,-117.00
2.00,-116.00
2.00,-112.00
2.00,-109.00
2.00,-108.00
2.00,-109.00
2.00,-109.00
2.00,-106.00
2.00,-107.00
2.00,-108.00
2.00,-110.00
2.00,-111.00
2.00,-112.00
2.00,-111.00
2.00,-111.00
2.00,-113.00
2.00,-111.00
2.00,-110.00
2.00,-110.00
2.00,-106.00
2.00,-109.00
2.00,-104.00
2.00,-102.00
2.00,-102.00
2.00,-99.00
2.00,-99.00
2.00,-96.00
2.00,-99.00
2.00,-98.00
2.00,-99.00
2.00,-103.00
2.00,-95.00
2.00,-82.00
2.00,-64.00
2.00,-33.00
2.00,1.00
2.00,36.00
2.00,63.00
2.00,84.00
2.00,91.00
2.00,97.00
2.00,101.00
2.00,101.00
2.00,100.00
2.00,97.00
2.00,98.00
2.00,98.00
2.00,97.00
2.00,96.00
2.00,95.00
2.00,96.00
2.00,95.00
2.00,96.00
2.00,99.00
2.00,99.00
2.00,102.00
2.00,102.00
2.00,101.00
2.00,103.00
2.00,107.00
2.00,110.00
2.00,111.00
2.00,114.00
2.00,115.00
2.00,117.00
2.00,117.00
2.00,116.00
2.00,114.00
2.00,114.00
2.00,113.00
2.00,113.00
2.00,111.00
2.00,111.00
2.00,111.00
2.00,111.00
2.00,112.00
2.00,111.00
2.00,120.00
2.00,131.00
2.00,157.00
2.00,183.00
2.00,214.00
2.00,247.00
2.00,279.00
2.00,303.00
2.00,316.00
2.00,319.00
2.00,319.00
2.00,312.00
2.00,304.00
2.00,303.00
2.00,302.00
2.00,303.00
2.00,301.00
2.00,302.00
2.00,300.00
2.00,306.00
2.00,303.00
2.00,304.00
2.00,303.00
2.00,305.00
2.00,307.00
2.00,308.00
2.00,309.00
2.00,312.00
2.00,314.00
2.00,312.00
2.00,309.00
2.00,305.00
2.00,303.00
2.00,299.00
2.00,298.00
2.00,298.00
2.00,298.00
2.00,297.00
2.00,296.00
2.00,299.00
2.00,297.00
2.00,298.00
2.00,294.00
2.00,296.00
2.00,299.00
2.00,298.00
2.00,297.00
2.00,298.00
2.00,303.00
2.00,301.00
2.00,298.00
2.00,300.00
2.00,293.00
2.00,291.00
2.00,289.00
2.00,287.00
2.00,295.00
2.00,309.00
2.00,333.00
2.00,363.00
2.00,390.00
2.00,397.00
2.00,393.00
2.00,382.00
2.00,374.00
2.00,377.00
2.00,380.00
2.00,382.00
2.00,385.00
2.00,383.00
2.00,383.00
2.00,381.00
2.00,377.00
2.00,377.00
2.00,377.00
2.00,371.00
2.00,341.00
2.00,288.00
2.00,238.00
2.00,183.00
2.00,136.00
2.00,91.00
2.00,46.00
2.00,2.00
2.00,-29.00
2.00,-48.00
2.00,-62.00
2.00,-64.00
2.00,-60.00
2.00,-57.00
2.00,-56.00
2.00,-60.00
2.00,-59.00
2.00,-60.00
2.00,-63.00
2.00,-64.00
2.00,-64.00
2.00,-63.00
2.00,-66.00
2.00,-64.00
2.00,-62.00
2.00,-63.00
2.00,-60.00
2.00,-59.00
2.00,-58.00
2.00,-56.00
2.00,-53.00
2.00,-52.00
2.00,-54.00
2.00,-50.00
2.00,-51.00
2.00,-51.00
2.00,-51.00
2.00,-54.00
2.00,-54.00
2.00,-54.00
2.00,-54.00
2.00,-54.00
2.00,-53.00
2.00,-51.00
2.00,-54.00
2.00,-51.00
2.00,-51.00
2.00,-48.00
2.00,-48.00
2.00,-49.00
2.00,-56.00
2.00,-75.00
2.00,-97.00
2.00,-120.00
2.00,-140.00
2.00,-149.00
2.00,-156.00
2.00,-152.00
2.00,-150.00
2.00,-148.00
2.00,-149.00
2.00,-151.00
2.00,-149.00
2.00,-148.00
2.00,-148.00
2.00,-151.00
2.00,-148.00
2.00,-148.00
2.00,-147.00
2.00,-146.00
2.00,-143.00
2.00,-144.00
2.00,-140.00
2.00,-138.00
2.00,-134.00
2.00,-132.00
2.00,-136.00
2.00,-135.00
2.00,-136.00
2.00,-141.00
2.00,-145.00
2.00,-145.00
2.00,-143.00
2.00,-145.00
2.00,-146.00
2.00,-147.00
2.00,-145.00
2.00,-144.00
2.00,-146.00
2.00,-143.00
2.00,-142.00
2.00,-140.00
2.00,-136.00
2.00,-137.00
2.00,-134.00
2.00,-137.00
2.00,-137.00
2.00,-135.00
2.00,-135.00
2.00,-138.00
2.00,-143.00
2.00,-141.00
2.00,-144.00
2.00,-141.00
2.00,-144.00
2.00,-146.00
2.00,-142.00
2.00,-141.00
2.00,-141.00
2.00,-138.00
2.00,-140.00
2.00,-137.00
2.00,-137.00
2.00,-135.00
2.00,-134.00
2.00,-133.00
2.00,-132.00
2.00,-135.00
2.00,-132.00
2.00,-134.00
2.00,-134.00
2.00,-136.00
2.00,-135.00
2.00,-137.00
2.00,-137.00
2.00,-136.00
2.00,-136.00
2.00,-136.00
2.00,-135.00
2.00,-134.00
2.00,-131.00
2.00,-131.00
2.00,-128.00
2.00,-128.00
2.00,-127.00
2.00,-123.00
2.00,-125.00
2.00,-125.00
2.00,-125.00
2.00,-126.00
2.00,-127.00
2.00,-130.00
2.00,-129.00
2.00,-134.00
2.00,-134.00
2.00,-135.00
2.00,-139.00
2.00,-137.00
2.00,-137.00
2.00,-138.00
2.00,-137.00
2.00,-136.00
2.00,-135.00
2.00,-135.00
2.00,-135.00
2.00,-132.00
2.00,-131.00
2.00,-129.00
2.00,-128.00
2.00,-128.00
2.00,-127.00
2.00,-129.00
2.00,-126.00
2.00,-128.00
2.00,-132.00
2.00,-133.00
2.00,-134.00
2.00,-135.00
2.00,-132.00
2.00,-129.00
2.00,-118.00
2.00,-92.00
2.00,-56.00
2.00,-15.00
2.00,25.00
2.00,65.00
2.00,101.00
2.00,130.00
2.00,147.00
2.00,155.00
2.00,148.00
2.00,153.00
2.00,149.00
2.00,147.00
2.00,147.00
2.00,145.00
2.00,144.00
2.00,140.00
2.00,141.00
2.00,141.00
2.00,137.00
2.00,137.00
2.00,136.00
2.00,136.00
2.00,137.00
2.00,138.00
2.00,139.00
2.00,140.00
2.00,143.00
2.00,142.00
2.00,142.00
2.00,144.00
2.00,144.00
2.00,144.00
2.00,142.00
2.00,142.00
2.00,142.00
2.00,144.00
2.00,157.00
2.00,196.00
2.00,273.00
2.00,364.00
2.00,432.00
2.00,473.00
2.00,487.00
2.00,489.00
2.00,484.00
2.00,482.00
2.00,482.00
2.00,480.00
2.00,484.00
2.00,485.00
2.00,487.00
2.00,487.00
2.00,488.00
2.00,486.00
2.00,484.00
2.00,484.00
2.00,486.00
2.00,483.00
2.00,481.00
2.00,482.00
2.00,485.00
2.00,482.00
2.00,484.00
2.00,485.00
2.00,482.00
2.00,485.00
2.00,488.00
2.00,486.00
2.00,487.00
2.00,487.00
2.00,489.00
2.00,492.00
2.00,495.00
2.00,494.00
2.00,495.00
2.00,495.00
2.00,493.00
2.00,496.00
2.00,491.00
2.00,487.00
2.00,467.00
2.00,442.00
2.00,423.00
2.00,411.00
2.00,409.00
2.00,413.00
2.00,417.00
2.00,419.00
2.00,419.00
2.00,421.00
2.00,419.00
2.00,421.00
2.00,425.00
2.00,426.00
2.00,426.00
2.00,428.00
2.00,430.00
2.00,428.00
2.00,429.00
2.00,430.00
2.00,429.00
2.00,431.00
2.00,431.00
2.00,430.00
2.00,429.00
2.00,431.00
2.00,429.00
2.00,417.00
2.00,371.00
2.00,280.00
2.00,186.00
2.00,113.00
2.00,41.00
2.00,-25.00
2.00,-89.00
2.00,-141.00
2.00,-194.00
2.00,-240.00
2.00,-272.00
2.00,-292.00
2.00,-300.00
2.00,-299.00
2.00,-296.00
2.00,-299.00
2.00,-303.00
2.00,-304.00
2.00,-308.00
2.00,-310.00
2.00,-308.00
2.00,-312.00
2.00,-316.00
2.00,-314.00
2.00,-314.00
2.00,-314.00
2.00,-316.00
2.00,-312.00
2.00,-313.00
2.00,-313.00
2.00,-311.00
2.00,-313.00
2.00,-310.00
2.00,-311.00
2.00,-309.00
2.00,-310.00
2.00,-310.00
2.00,-309.00
2.00,-311.00
2.00,-310.00
2.00,-314.00
2.00,-314.00
2.00,-314.00
2.00,-317.00
2.00,-314.00
2.00,-316.00
2.00,-314.00
2.00,-314.00
2.00,-319.00
2.00,-339.00
2.00,-374.00
2.00,-413.00
2.00,-465.00
2.00,-518.00
2.00,-581.00
2.00,-633.00
2.00,-665.00
2.00,-666.00
2.00,-653.00
2.00,-644.00
2.00,-639.00
2.00,-637.00
2.00,-640.00
2.00,-643.00
2.00,-645.00
2.00,-653.00
2.00,-653.00
2.00,-655.00
2.00,-653.00
2.00,-654.00
2.00,-657.00
2.00,-654.00
2.00,-655.00
2.00,-652.00
2.00,-652.00
2.00,-649.00
2.00,-645.00
2.00,-644.00
2.00,-643.00
2.00,-637.00
2.00,-636.00
2.00,-636.00
2.00,-635.00
2.00,-632.00
2.00,-635.00
2.00,-633.00
2.00,-633.00
2.00,-631.00
2.00,-633.00
2.00,-636.00
2.00,-637.00
2.00,-643.00
2.00,-644.00
2.00,-644.00
2.00,-646.00
2.00,-646.00
2.00,-650.00
2.00,-648.00
2.00,-649.00
2.00,-650.00
2.00,-647.00
2.00,-651.00
2.00,-649.00
2.00,-648.00
2.00,-647.00
2.00,-648.00
2.00,-646.00
2.00,-647.00
2.00,-646.00
2.00,-622.00
2.00,-571.00
2.00,-515.00
2.00,-461.00
2.00,-411.00
2.00,-353.00
2.00,-290.00
2.00,-242.00
2.00,-204.00
2.00,-186.00
2.00,-180.00
2.00,-184.00
2.00,-180.00
2.00,-179.00
2.00,-180.00
2.00,-177.00
2.00,-176.00
2.00,-174.00
2.00,-171.00
2.00,-169.00
2.00,-166.00
2.00,-164.00
2.00,-163.00
2.00,-164.00
2.00,-160.00
2.00,-162.00
2.00,-162.00
2.00,-160.00
2.00,-162.00
2.00,-165.00
2.00,-167.00
2.00,-169.00
2.00,-167.00
2.00,-168.00
2.00,-168.00
2.00,-166.00
2.00,-164.00
2.00,-168.00
2.00,-166.00
2.00,-164.00
2.00,-163.00
2.00,-161.00
2.00,-163.00
2.00,-159.00
2.00,-154.00
2.00,-154.00
2.00,-155.00
2.00,-156.00
2.00,-155.00
2.00,-152.00
2.00,-155.00
2.00,-154.00
2.00,-156.00
2.00,-153.00
2.00,-159.00
2.00,-160.00
2.00,-159.00
2.00,-158.00
2.00,-159.00
2.00,-155.00
2.00,-153.00
2.00,-154.00
2.00,-157.00
2.00,-155.00
2.00,-152.00
2.00,-152.00
2.00,-150.00
2.00,-150.00
2.00,-145.00
2.00,-142.00
2.00,-140.00
2.00,-137.00
2.00,-136.00
2.00,-136.00
2.00,-134.00
2.00,-133.00
2.00,-129.00
2.00,-133.00
2.00,-130.00
2.00,-133.00
2.00,-133.00
2.00,-133.00
2.00,-133.00
2.00,-130.00
2.00,-132.00
2.00,-130.00
2.00,-129.00
2.00,-127.00
2.00,-125.00
2.00,-121.00
2.00,-119.00
2.00,-118.00
2.00,-118.00
2.00,-116.00
2.00,-110.00
2.00,-109.00
2.00,-109.00
2.00,-106.00
2.00,-108.00
2.00,-107.00
2.00,-108.00
2.00,-109.00
2.00,-110.00
2.00,-112.00
2.00,-112.00
2.00,-110.00
2.00,-113.00
2.00,-112.00
2.00,-116.00
2.00,-117.00
2.00,-115.00
2.00,-115.00
2.00,-115.00
2.00,-115.00
2.00,-111.00
2.00,-110.00
2.00,-112.00
2.00,-105.00
2.00,-108.00
2.00,-103.00
2.00,-103.00
2.00,-103.00
2.00,-103.00
2.00,-103.00
2.00,-100.00
2.00,-102.00
2.00,-103.00
2.00,-103.00
2.00,-105.00
2.00,-105.00
2.00,-106.00
2.00,-109.00
2.00,-106.00
2.00,-108.00
2.00,-106.00
2.00,-109.00
2.00,-110.00
2.00,-109.00
2.00,-107.00
2.00,-105.00
2.00,-103.00
2.00,-102.00
2.00,-103.00
2.00,-101.00
2.00,-98.00
2.00,-99.00
2.00,-96.00
2.00,-101.00
2.00,-97.00
2.00,-97.00
2.00,-98.00
2.00,-96.00
2.00,-98.00
2.00,-97.00
2.00,-97.00
2.00,-98.00
2.00,-98.00
2.00,-100.00
2.00,-99.00
2.00,-102.00
2.00,-100.00
2.00,-104.00
2.00,-102.00
2.00,-103.00
2.00,-100.00
2.00,-99.00
2.00,-99.00
2.00,-99.00
2.00,-97.00
2.00,-95.00
2.00,-92.00
2.00,-92.00
2.00,-92.00
2.00,-89.00
2.00,-90.00
2.00,-86.00
2.00,-88.00
2.00,-86.00
2.00,-87.00
2.00,-88.00
2.00,-85.00
2.00,-84.00
2.00,-88.00
2.00,-92.00
2.00,-89.00
2.00,-86.00
2.00,-87.00
2.00,-84.00
2.00,-84.00
2.00,-83.00
2.00,-79.00
2.00,-80.00
2.00,-76.00
2.00,-73.00
2.00,-70.00
2.00,-69.00
2.00,-69.00
2.00,-64.00
2.00,-64.00
2.00,-59.00
2.00,-56.00
2.00,-57.00
2.00,-54.00
2.00,-51.00
2.00,-53.00
2.00,-54.00
2.00,-53.00
2.00,-55.00
2.00,-58.00
2.00,-54.00
2.00,-56.00
2.00,-57.00
2.00,-57.00
2.00,-56.00
2.00,-56.00
2.00,-58.00
2.00,-56.00
2.00,-60.00
2.00,-56.00
2.00,-55.00
2.00,-56.00
2.00,-52.00
2.00,-53.00
2.00,-53.00
2.00,-51.00
2.00,-52.00
2.00,-50.00
2.00,-53.00
2.00,-48.00
2.00,-46.00
2.00,-26.00
2.00,5.00
2.00,57.00
2.00,124.00
2.00,190.00
2.00,238.00
2.00,292.00
2.00,343.00
2.00,375.00
2.00,385.00
2.00,385.00
2.00,379.00
2.00,373.00
2.00,369.00
2.00,366.00
2.00,365.00
2.00,364.00
2.00,362.00
2.00,365.00
2.00,366.00
2.00,365.00
2.00,363.00
2.00,366.00
2.00,367.00
2.00,366.00
2.00,369.00
2.00,365.00
2.00,370.00
2.00,365.00
2.00,367.00
2.00,367.00
2.00,364.00
2.00,366.00
2.00,364.00
2.00,361.00
2.00,359.00
2.00,358.00
2.00,358.00
2.00,358.00
2.00,354.00
2.00,323.00
2.00,269.00
2.00,212.00
2.00,151.00
2.00,85.00
2.00,13.00
2.00,-46.00
2.00,-85.00
2.00,-107.00
2.00,-108.00
2.00,-103.00
2.00,-95.00
2.00,-90.00
2.00,-90.00
2.00,-90.00
2.00,-90.00
2.00,-88.00
2.00,-87.00
2.00,-85.00
2.00,-85.00
2.00,-87.00
2.00,-87.00
2.00,-89.00
2.00,-90.00
2.00,-90.00
2.00,-91.00
2.00,-91.00
2.00,-89.00
2.00,-91.00
2.00,-88.00
2.00,-91.00
2.00,-87.00
2.00,-90.00
2.00,-87.00
2.00,-87.00
2.00,-83.00
2.00,-83.00
2.00,-83.00
2.00,-80.00
2.00,-78.00
2.00,-78.00
2.00,-77.00
2.00,-78.00
2.00,-76.00
2.00,-79.00
2.00,-89.00
2.00,-102.00
2.00,-109.00
2.00,-107.00
2.00,-104.00
2.00,-102.00
2.00,-101.00
2.00,-103.00
2.00,-103.00
2.00,-103.00
2.00,-104.00
3.00,154.00
3.00,174.00
3.00,180.00
3.00,179.00
3.00,177.00
3.00,171.00
3.00,166.00
3.00,157.00
3.00,154.00
3.00,153.00
3.00,154.00
3.00,159.00
3.00,169.00
3.00,173.00
3.00,180.00
3.00,182.00
3.00,183.00
3.00,180.00
3.00,175.00
3.00,169.00
3.00,159.00
3.00,155.00
3.00,151.00
3.00,153.00
3.00,158.00
3.00,162.00
3.00,168.00
3.00,172.00
3.00,180.00
3.00,182.00
3.00,177.00
3.00,173.00
3.00,166.00
3.00,162.00
3.00,153.00
3.00,152.00
3.00,152.00
3.00,157.00
3.00,163.00
3.00,166.00
3.00,172.00
3.00,177.00
3.00,179.00
3.00,182.00
3.00,178.00
3.00,173.00
3.00,163.00
3.00,157.00
3.00,154.00
3.00,155.00
3.00,155.00
3.00,158.00
3.00,165.00
3.00,171.00
3.00,174.00
3.00,177.00
3.00,176.00
3.00,175.00
3.00,169.00
3.00,160.00
3.00,156.00
3.00,153.00
3.00,150.00
3.00,155.00
3.00,160.00
3.00,166.00
3.00,171.00
3.00,178.00
3.00,181.00
3.00,182.00
3.00,182.00
3.00,178.00
3.00,174.00
3.00,166.00
3.00,161.00
3.00,159.00
3.00,160.00
3.00,165.00
3.00,174.00
3.00,180.00
3.00,188.00
3.00,192.00
3.00,196.00
3.00,198.00
3.00,197.00
3.00,188.00
3.00,187.00
3.00,181.00
3.00,176.00
3.00,178.00
3.00,183.00
3.00,187.00
3.00,198.00
3.00,205.00
3.00,213.00
3.00,216.00
3.00,221.00
3.00,222.00
3.00,217.00
3.00,211.00
3.00,203.00
3.00,200.00
3.00,201.00
3.00,205.00
3.00,213.00
3.00,218.00
3.00,228.00
3.00,230.00
3.00,241.00
3.00,241.00
3.00,238.00
3.00,238.00
3.00,229.00
3.00,224.00
3.00,219.00
3.00,215.00
3.00,216.00
3.00,218.00
3.00,229.00
3.00,230.00
3.00,238.00
3.00,242.00
3.00,248.00
3.00,249.00
3.00,243.00
3.00,240.00
3.00,233.00
3.00,228.00
3.00,224.00
3.00,223.00
3.00,228.00
3.00,232.00
3.00,238.00
3.00,245.00
3.00,250.00
3.00,256.00
3.00,259.00
3.00,259.00
3.00,261.00
3.00,256.00
3.00,247.00
3.00,240.00
3.00,234.00
3.00,232.00
3.00,235.00
3.00,239.00
3.00,245.00
3.00,251.00
3.00,257.00
3.00,260.00
3.00,266.00
3.00,266.00
3.00,264.00
3.00,258.00
3.00,250.00
3.00,242.00
3.00,240.00
3.00,240.00
3.00,239.00
3.00,246.00
3.00,252.00
3.00,255.00
3.00,262.00
3.00,265.00
3.00,271.00
3.00,267.00
3.00,266.00
3.00,258.00
3.00,249.00
3.00,243.00
3.00,239.00
3.00,238.00
3.00,241.00
3.00,247.00
3.00,253.00
3.00,258.00
3.00,261.00
3.00,266.00
3.00,266.00
3.00,264.00
3.00,259.00
3.00,254.00
3.00,249.00
3.00,244.00
3.00,239.00
3.00,241.00
3.00,244.00
3.00,252.00
3.00,261.00
3.00,264.00
3.00,271.00
3.00,276.00
3.00,280.00
3.00,280.00
3.00,275.00
3.00,271.00
3.00,264.00
3.00,259.00
3.00,259.00
3.00,259.00
3.00,262.00
3.00,268.00
3.00,275.00
3.00,282.00
3.00,285.00
3.00,293.00
3.00,296.00
3.00,294.00
3.00,290.00
3.00,283.00
3.00,275.00
3.00,270.00
3.00,269.00
3.00,267.00
3.00,272.00
3.00,280.00
3.00,285.00
3.00,290.00
3.00,296.00
3.00,300.00
3.00,304.00
3.00,299.00
3.00,295.00
3.00,285.00
3.00,276.00
3.00,274.00
3.00,267.00
3.00,267.00
3.00,268.00
3.00,277.00
3.00,279.00
3.00,285.00
3.00,292.00
3.00,291.00
3.00,294.00
3.00,288.00
3.00,283.00
3.00,278.00
3.00,268.00
3.00,262.00
3.00,257.00
3.00,254.00
3.00,255.00
3.00,260.00
3.00,265.00
3.00,267.00
3.00,269.00
3.00,268.00
3.00,265.00
3.00,259.00
3.00,251.00
3.00,240.00
3.00,233.00
3.00,226.00
3.00,225.00
3.00,222.00
3.00,228.00
3.00,232.00
3.00,234.00
3.00,240.00
3.00,243.00
3.00,246.00
3.00,244.00
3.00,244.00
3.00,238.00
3.00,228.00
3.00,223.00
3.00,217.00
3.00,212.00
3.00,210.00
3.00,212.00
3.00,213.00
3.00,218.00
3.00,224.00
3.00,225.00
3.00,229.00
3.00,231.00
3.00,230.00
3.00,225.00
3.00,219.00
3.00,210.00
3.00,201.00
3.00,191.00
3.00,191.00
3.00,192.00
3.00,195.00
3.00,202.00
3.00,203.00
3.00,209.00
3.00,214.00
3.00,218.00
3.00,215.00
3.00,213.00
3.00,209.00
3.00,203.00
3.00,199.00
3.00,193.00
3.00,191.00
3.00,192.00
3.00,199.00
3.00,205.00
3.00,212.00
3.00,219.00
3.00,227.00
3.00,233.00
3.00,232.00
3.00,232.00
3.00,231.00
3.00,225.00
3.00,222.00
3.00,219.00
3.00,216.00
3.00,218.00
3.00,221.00
3.00,228.00
3.00,237.00
3.00,244.00
3.00,254.00
3.00,260.00
3.00,266.00
3.00,268.00
3.00,266.00
3.00,265.00
3.00,259.00
3.00,253.00
3.00,251.00
3.00,251.00
3.00,255.00
3.00,262.00
3.00,266.00
3.00,275.00
3.00,281.00
3.00,286.00
3.00,289.00
3.00,290.00
3.00,291.00
3.00,286.00
3.00,279.00
3.00,274.00
3.00,270.00
3.00,268.00
3.00,272.00
3.00,277.00
3.00,287.00
3.00,293.00
3.00,303.00
3.00,310.00
3.00,314.00
3.00,319.00
3.00,317.00
3.00,315.00
3.00,314.00
3.00,306.00
3.00,304.00
3.00,303.00
3.00,301.00
3.00,308.00
3.00,317.00
3.00,324.00
3.00,327.00
3.00,336.00
3.00,344.00
3.00,347.00
3.00,349.00
3.00,345.00
3.00,344.00
3.00,335.00
3.00,332.00
3.00,327.00
3.00,326.00
3.00,329.00
3.00,331.00
3.00,337.00
3.00,344.00
3.00,347.00
3.00,350.00
3.00,352.00
3.00,356.00
3.00,355.00
3.00,350.00
3.00,347.00
3.00,341.00
3.00,332.00
3.00,331.00
3.00,326.00
3.00,331.00
3.00,334.00
3.00,340.00
3.00,342.00
3.00,350.00
3.00,357.00
3.00,357.00
3.00,361.00
3.00,360.00
3.00,354.00
3.00,350.00
3.00,346.00
3.00,343.00
3.00,338.00
3.00,341.00
3.00,344.00
3.00,349.00
3.00,355.00
3.00,363.00
3.00,362.00
3.00,365.00
3.00,368.00
3.00,369.00
3.00,364.00
3.00,358.00
3.00,352.00
3.00,343.00
3.00,339.00
3.00,337.00
3.00,338.00
3.00,340.00
3.00,346.00
3.00,349.00
3.00,348.00
3.00,352.00
3.00,351.00
3.00,348.00
3.00,340.00
3.00,320.00
3.00,284.00
3.00,238.00
3.00,184.00
3.00,129.00
3.00,83.00
3.00,39.00
3.00,0.00
3.00,-26.00
3.00,-47.00
3.00,-61.00
3.00,-77.00
3.00,-94.00
3.00,-115.00
3.00,-135.00
3.00,-153.00
3.00,-175.00
3.00,-191.00
3.00,-201.00
3.00,-207.00
3.00,-210.00
3.00,-204.00
3.00,-197.00
3.00,-189.00
3.00,-179.00
3.00,-172.00
3.00,-169.00
3.00,-164.00
3.00,-162.00
3.00,-159.00
3.00,-168.00
3.00,-187.00
3.00,-215.00
3.00,-253.00
3.00,-286.00
3.00,-307.00
3.00,-322.00
3.00,-328.00
3.00,-334.00
3.00,-337.00
3.00,-344.00
3.00,-348.00
3.00,-353.00
3.00,-362.00
3.00,-368.00
3.00,-374.00
3.00,-386.00
3.00,-395.00
3.00,-404.00
3.00,-406.00
3.00,-410.00
3.00,-408.00
3.00,-404.00
3.00,-400.00
3.00,-397.00
3.00,-390.00
3.00,-384.00
3.00,-384.00
3.00,-382.00
3.00,-382.00
3.00,-389.00
3.00,-394.00
3.00,-402.00
3.00,-408.00
3.00,-412.00
3.00,-417.00
3.00,-415.00
3.00,-409.00
3.00,-403.00
3.00,-399.00
3.00,-393.00
3.00,-387.00
3.00,-385.00
3.00,-383.00
3.00,-384.00
3.00,-388.00
3.00,-394.00
3.00,-400.00
3.00,-407.00
3.00,-410.00
3.00,-409.00
3.00,-407.00
3.00,-407.00
3.00,-402.00
3.00,-393.00
3.00,-388.00
3.00,-385.00
3.00,-382.00
3.00,-379.00
3.00,-381.00
3.00,-379.00
3.00,-385.00
3.00,-392.00
3.00,-398.00
3.00,-402.00
3.00,-404.00
3.00,-403.00
3.00,-400.00
3.00,-395.00
3.00,-390.00
3.00,-384.00
3.00,-376.00
3.00,-372.00
3.00,-368.00
3.00,-366.00
3.00,-367.00
3.00,-370.00
3.00,-371.00
3.00,-364.00
3.00,-328.00
3.00,-274.00
3.00,-207.00
3.00,-128.00
3.00,-52.00
3.00,23.00
3.00,88.00
3.00,138.00
3.00,167.00
3.00,182.00
3.00,185.00
3.00,180.00
3.00,175.00
3.00,168.00
3.00,162.00
3.00,153.00
3.00,145.00
3.00,137.00
3.00,135.00
3.00,131.00
3.00,142.00
3.00,139.00
3.00,144.00
3.00,149.00
3.00,154.00
3.00,159.00
3.00,155.00
3.00,159.00
3.00,154.00
3.00,149.00
3.00,141.00
3.00,138.00
3.00,134.00
3.00,132.00
3.00,132.00
3.00,137.00
3.00,141.00
3.00,149.00
3.00,156.00
3.00,161.00
3.00,165.00
3.00,167.00
3.00,169.00
3.00,168.00
3.00,163.00
3.00,156.00
3.00,151.00
3.00,149.00
3.00,142.00
3.00,144.00
3.00,140.00
3.00,138.00
3.00,134.00
3.00,127.00
3.00,114.00
3.00,103.00
3.00,99.00
3.00,95.00
3.00,97.00
3.00,94.00
3.00,86.00
3.00,78.00
3.00,67.00
3.00,58.00
3.00,57.00
3.00,53.00
3.00,56.00
3.00,55.00
3.00,61.00
3.00,65.00
3.00,65.00
3.00,71.00
3.00,74.00
3.00,78.00
3.00,81.00
3.00,81.00
3.00,80.00
3.00,74.00
3.00,70.00
3.00,68.00
3.00,67.00
3.00,68.00
3.00,71.00
3.00,76.00
3.00,83.00
3.00,89.00
3.00,98.00
3.00,105.00
3.00,111.00
3.00,116.00
3.00,121.00
3.00,121.00
3.00,119.00
3.00,115.00
3.00,110.00
3.00,106.00
3.00,105.00
3.00,105.00
3.00,105.00
3.00,113.00
3.00,117.00
3.00,122.00
3.00,128.00
3.00,130.00
3.00,132.00
3.00,133.00
3.00,133.00
3.00,131.00
3.00,126.00
3.00,122.00
3.00,116.00
3.00,113.00
3.00,113.00
3.00,111.00
3.00,121.00
3.00,145.00
3.00,191.00
3.00,249.00
3.00,315.00
3.00,382.00
3.00,450.00
3.00,509.00
3.00,560.00
3.00,588.00
3.00,603.00
3.00,602.00
3.00,592.00
3.00,586.00
3.00,584.00
3.00,582.00
3.00,583.00
3.00,588.00
3.00,594.00
3.00,601.00
3.00,607.00
3.00,613.00
3.00,621.00
3.00,625.00
3.00,628.00
3.00,628.00
3.00,630.00
3.00,629.00
3.00,626.00
3.00,627.00
3.00,627.00
3.00,631.00
3.00,637.00
3.00,643.00
3.00,653.00
3.00,664.00
3.00,673.00
3.00,680.00
3.00,691.00
3.00,694.00
3.00,701.00
3.00,705.00
3.00,707.00
3.00,707.00
3.00,703.00
3.00,698.00
3.00,698.00
3.00,695.00
3.00,696.00
3.00,705.00
3.00,709.00
3.00,721.00
3.00,730.00
3.00,739.00
3.00,749.00
3.00,758.00
3.00,766.00
3.00,771.00
3.00,783.00
3.00,801.00
3.00,829.00
3.00,866.00
3.00,898.00
3.00,926.00
3.00,946.00
3.00,958.00
3.00,971.00
3.00,975.00
3.00,983.00
3.00,994.00
3.00,1004.00
3.00,1013.00
3.00,1024.00
3.00,1026.00
3.00,1034.00
3.00,1036.00
3.00,1039.00
3.00,1037.00
3.00,1037.00
3.00,1038.00
3.00,1039.00
3.00,1043.00
3.00,1052.00
3.00,1061.00
3.00,1070.00
3.00,1081.00
3.00,1088.00
3.00,1096.00
3.00,1106.00
3.00,1110.00
3.00,1114.00
3.00,1113.00
3.00,1114.00
3.00,1112.00
3.00,1107.00
3.00,1104.00
3.00,1100.00
3.00,1102.00
3.00,1104.00
3.00,1108.00
3.00,1114.00
3.00,1119.00
3.00,1128.00
3.00,1134.00
3.00,1136.00
3.00,1139.00
3.00,1141.00
3.00,1142.00
3.00,1138.00
3.00,1135.00
3.00,1131.00
3.00,1126.00
3.00,1123.00
3.00,1121.00
3.00,1122.00
3.00,1125.00
3.00,1125.00
3.00,1134.00
3.00,1137.00
3.00,1145.00
3.00,1150.00
3.00,1157.00
3.00,1161.00
3.00,1160.00
3.00,1164.00
3.00,1159.00
3.00,1152.00
3.00,1148.00
3.00,1146.00
3.00,1142.00
3.00,1139.00
3.00,1141.00
3.00,1144.00
3.00,1148.00
3.00,1154.00
3.00,1159.00
3.00,1166.00
3.00,1173.00
3.00,1180.00
3.00,1184.00
3.00,1185.00
3.00,1190.00
3.00,1187.00
3.00,1183.00
3.00,1175.00
3.00,1153.00
3.00,1119.00
3.00,1074.00
3.00,1037.00
3.00,999.00
3.00,966.00
3.00,931.00
3.00,903.00
3.00,886.00
3.00,868.00
3.00,855.00
3.00,848.00
3.00,836.00
3.00,825.00
3.00,813.00
3.00,804.00
3.00,796.00
3.00,795.00
3.00,789.00
3.00,790.00
3.00,793.00
3.00,797.00
3.00,805.00
3.00,811.00
3.00,818.00
3.00,826.00
3.00,829.00
3.00,831.00
3.00,832.00
3.00,831.00
3.00,827.00
3.00,823.00
3.00,815.00
3.00,809.00
3.00,805.00
3.00,801.00
3.00,797.00
3.00,798.00
3.00,802.00
3.00,807.00
3.00,810.00
3.00,813.00
3.00,804.00
3.00,777.00
3.00,734.00
3.00,682.00
3.00,634.00
3.00,594.00
3.00,563.00
3.00,541.00
3.00,521.00
3.00,506.00
3.00,493.00
3.00,479.00
3.00,477.00
3.00,476.00
3.00,477.00
3.00,483.00
3.00,486.00
3.00,491.00
3.00,494.00
3.00,498.00
3.00,499.00
3.00,500.00
3.00,502.00
3.00,495.00
3.00,496.00
3.00,492.00
3.00,490.00
3.00,488.00
3.00,485.00
3.00,489.00
3.00,492.00
3.00,495.00
3.00,504.00
3.00,510.00
3.00,517.00
3.00,522.00
3.00,524.00
3.00,527.00
3.00,529.00
3.00,525.00
3.00,523.00
3.00,518.00
3.00,515.00
3.00,510.00
3.00,507.00
3.00,507.00
3.00,515.00
3.00,517.00
3.00,523.00
3.00,529.00
3.00,533.00
3.00,538.00
3.00,545.00
3.00,547.00
3.00,550.00
3.00,551.00
3.00,551.00
3.00,548.00
3.00,543.00
3.00,539.00
3.00,533.00
3.00,530.00
3.00,526.00
3.00,527.00
3.00,530.00
3.00,533.00
3.00,540.00
3.00,546.00
3.00,550.00
3.00,552.00
3.00,559.00
3.00,560.00
3.00,562.00
3.00,561.00
3.00,559.00
3.00,554.00
3.00,546.00
3.00,543.00
3.00,536.00
3.00,531.00
3.00,532.00
3.00,535.00
3.00,539.00
3.00,543.00
3.00,548.00
3.00,552.00
3.00,557.00
3.00,561.00
3.00,561.00
3.00,562.00
3.00,562.00
3.00,557.00
3.00,556.00
3.00,549.00
3.00,541.00
3.00,538.00
3.00,532.00
3.00,531.00
3.00,530.00
3.00,534.00
3.00,539.00
3.00,545.00
3.00,548.00
3.00,549.00
3.00,552.00
3.00,552.00
3.00,552.00
3.00,553.00
3.00,548.00
3.00,545.00
3.00,539.00
3.00,531.00
3.00,528.00
3.00,525.00
3.00,523.00
3.00,522.00
3.00,531.00
3.00,547.00
3.00,566.00
3.00,585.00
3.00,611.00
3.00,642.00
3.00,672.00
3.00,704.00
3.00,730.00
3.00,745.00
3.00,751.00
3.00,742.00
3.00,723.00
3.00,702.00
3.00,688.00
3.00,678.00
3.00,674.00
3.00,671.00
3.00,672.00
3.00,675.00
3.00,677.00
3.00,679.00
3.00,684.00
3.00,691.00
3.00,692.00
3.00,697.00
3.00,697.00
3.00,693.00
3.00,691.00
3.00,682.00
3.00,675.00
3.00,667.00
3.00,659.00
3.00,652.00
3.00,651.00
3.00,651.00
3.00,651.00
3.00,657.00
3.00,658.00
3.00,662.00
3.00,664.00
3.00,666.00
3.00,668.00
3.00,670.00
3.00,664.00
3.00,657.00
3.00,645.00
3.00,632.00
3.00,619.00
3.00,609.00
3.00,599.00
3.00,593.00
3.00,586.00
3.00,580.00
3.00,584.00
3.00,588.00
3.00,592.00
3.00,596.00
3.00,602.00
3.00,609.00
3.00,612.00
3.00,613.00
3.00,613.00
3.00,612.00
3.00,609.00
3.00,608.00
3.00,597.00
3.00,596.00
3.00,589.00
3.00,583.00
3.00,584.00
3.00,583.00
3.00,585.00
3.00,583.00
3.00,590.00
3.00,593.00
3.00,599.00
3.00,602.00
3.00,604.00
3.00,608.00
3.00,610.00
3.00,609.00
3.00,607.00
3.00,602.00
3.00,591.00
3.00,570.00
3.00,535.00
3.00,486.00
3.00,415.00
3.00,343.00
3.00,272.00
3.00,204.00
3.00,148.00
3.00,101.00
3.00,59.00
3.00,26.00
3.00,-4.00
3.00,-28.00
3.00,-49.00
3.00,-73.00
3.00,-89.00
3.00,-107.00
3.00,-124.00
3.00,-142.00
3.00,-152.00
3.00,-161.00
3.00,-168.00
3.00,-169.00
3.00,-169.00
3.00,-164.00
3.00,-158.00
3.00,-156.00
3.00,-149.00
3.00,-145.00
3.00,-145.00
3.00,-139.00
3.00,-138.00
3.00,-139.00
3.00,-138.00
3.00,-139.00
3.00,-146.00
3.00,-149.00
3.00,-154.00
3.00,-161.00
3.00,-164.00
3.00,-165.00
3.00,-163.00
3.00,-162.00
3.00,-160.00
3.00,-154.00
3.00,-151.00
3.00,-147.00
3.00,-143.00
3.00,-141.00
3.00,-139.00
3.00,-138.00
3.00,-139.00
3.00,-145.00
3.00,-150.00
3.00,-153.00
3.00,-163.00
3.00,-167.00
3.00,-171.00
3.00,-174.00
3.00,-178.00
3.00,-175.00
3.00,-173.00
3.00,-170.00
3.00,-167.00
3.00,-164.00
3.00,-161.00
3.00,-156.00
3.00,-153.00
3.00,-148.00
3.00,-149.00
3.00,-146.00
3.00,-148.00
3.00,-155.00
3.00,-157.00
3.00,-171.00
3.00,-183.00
3.00,-195.00
3.00,-211.00
3.00,-222.00
3.00,-234.00
3.00,-234.00
3.00,-223.00
3.00,-213.00
3.00,-204.00
3.00,-200.00
3.00,-200.00
3.00,-205.00
3.00,-209.00
3.00,-213.00
3.00,-219.00
3.00,-220.00
3.00,-228.00
3.00,-238.00
3.00,-242.00
3.00,-250.00
3.00,-254.00
3.00,-255.00
3.00,-259.00
3.00,-260.00
3.00,-258.00
3.00,-253.00
3.00,-250.00
3.00,-248.00
3.00,-242.00
3.00,-243.00
3.00,-241.00
3.00,-240.00
3.00,-237.00
3.00,-238.00
3.00,-240.00
3.00,-245.00
3.00,-252.00
3.00,-258.00
3.00,-263.00
3.00,-266.00
3.00,-270.00
3.00,-273.00
3.00,-273.00
3.00,-275.00
3.00,-267.00
3.00,-269.00
3.00,-265.00
3.00,-260.00
3.00,-261.00
3.00,-255.00
3.00,-254.00
3.00,-252.00
3.00,-247.00
3.00,-241.00
3.00,-231.00
3.00,-225.00
3.00,-215.00
3.00,-208.00
3.00,-208.00
3.00,-210.00
3.00,-213.00
3.00,-218.00
3.00,-219.00
3.00,-218.00
3.00,-211.00
3.00,-205.00
3.00,-203.00
3.00,-198.00
3.00,-197.00
3.00,-191.00
3.00,-189.00
3.00,-188.00
3.00,-190.00
3.00,-190.00
3.00,-193.00
3.00,-194.00
3.00,-202.00
3.00,-205.00
3.00,-208.00
3.00,-209.00
3.00,-209.00
3.00,-206.00
3.00,-203.00
3.00,-201.00
3.00,-195.00
3.00,-189.00
3.00,-184.00
3.00,-181.00
3.00,-173.00
3.00,-173.00
3.00,-168.00
3.00,-169.00
3.00,-169.00
3.00,-170.00
3.00,-176.00
3.00,-183.00
3.00,-187.00
3.00,-187.00
3.00,-189.00
3.00,-184.00
3.00,-181.00
3.00,-172.00
3.00,-152.00
3.00,-119.00
3.00,-68.00
3.00,-6.00
3.00,62.00
3.00,131.00
3.00,192.00
3.00,249.00
3.00,296.00
3.00,331.00
3.00,344.00
3.00,345.00
3.00,338.00
3.00,334.00
3.00,332.00
3.00,331.00
3.00,331.00
3.00,336.00
3.00,342.00
3.00,349.00
3.00,356.00
3.00,363.00
3.00,372.00
3.00,377.00
3.00,386.00
3.00,392.00
3.00,397.00
3.00,400.00
3.00,402.00
3.00,407.00
3.00,407.00
3.00,407.00
3.00,405.00
3.00,404.00
3.00,404.00
3.00,403.00
3.00,406.00
3.00,411.00
3.00,416.00
3.00,422.00
3.00,426.00
3.00,434.00
3.00,441.00
3.00,448.00
3.00,451.00
3.00,456.00
3.00,467.00
3.00,486.00
3.00,523.00
3.00,573.00
3.00,637.00
3.00,703.00
3.00,765.00
3.00,831.00
3.00,882.00
3.00,922.00
3.00,948.00
3.00,962.00
3.00,969.00
3.00,974.00
3.00,980.00
3.00,989.00
3.00,994.00
3.00,1003.00
3.00,1010.00
3.00,1016.00
3.00,1022.00
3.00,1025.00
3.00,1027.00
3.00,1029.00
3.00,1032.00
3.00,1027.00
3.00,1029.00
3.00,1026.00
3.00,1023.00
3.00,1026.00
3.00,1026.00
3.00,1029.00
3.00,1036.00
3.00,1044.00
3.00,1052.00
3.00,1056.00
3.00,1065.00
3.00,1068.00
3.00,1077.00
3.00,1084.00
3.00,1090.00
3.00,1091.00
3.00,1096.00
3.00,1096.00
3.00,1093.00
3.00,1093.00
3.00,1090.00
3.00,1090.00
3.00,1088.00
3.00,1088.00
3.00,1088.00
3.00,1093.00
3.00,1094.00
3.00,1101.00
3.00,1106.00
3.00,1109.00
3.00,1116.00
3.00,1115.00
3.00,1110.00
3.00,1095.00
3.00,1077.00
3.00,1055.00
3.00,1040.00
3.00,1031.00
3.00,1029.00
3.00,1022.00
3.00,1020.00
3.00,1012.00
3.00,1005.00
3.00,1002.00
3.00,999.00
3.00,995.00
3.00,997.00
3.00,1002.00
3.00,1005.00
3.00,1008.00
3.00,1010.00
3.00,1009.00
3.00,994.00
3.00,959.00
3.00,919.00
3.00,877.00
3.00,835.00
3.00,798.00
3.00,763.00
3.00,727.00
3.00,690.00
3.00,655.00
3.00,620.00
3.00,595.00
3.00,572.00
3.00,553.00
3.00,545.00
3.00,537.00
3.00,533.00
3.00,538.00
3.00,539.00
3.00,540.00
3.00,544.00
3.00,551.00
3.00,554.00
3.00,557.00
3.00,559.00
3.00,555.00
3.00,557.00
3.00,552.00
3.00,547.00
3.00,542.00
3.00,537.00
3.00,534.00
3.00,531.00
3.00,528.00
3.00,528.00
3.00,531.00
3.00,535.00
3.00,536.00
3.00,539.00
3.00,542.00
3.00,547.00
3.00,551.00
3.00,552.00
3.00,557.00
3.00,555.00
3.00,558.00
3.00,554.00
3.00,552.00
3.00,547.00
3.00,538.00
3.00,531.00
3.00,524.00
3.00,519.00
3.00,515.00
3.00,517.00
3.00,516.00
3.00,516.00
3.00,513.00
3.00,515.00
3.00,515.00
3.00,516.00
3.00,521.00
3.00,518.00
3.00,524.00
3.00,523.00
3.00,525.00
3.00,525.00
3.00,525.00
3.00,524.00
3.00,516.00
3.00,515.00
3.00,510.00
3.00,508.00
3.00,506.00
3.00,506.00
3.00,506.00
3.00,508.00
3.00,512.00
3.00,521.00
3.00,523.00
3.00,529.00
3.00,535.00
3.00,538.00
3.00,541.00
3.00,546.00
3.00,548.00
3.00,549.00
3.00,551.00
3.00,549.00
3.00,548.00
3.00,542.00
3.00,539.00
3.00,534.00
3.00,529.00
3.00,527.00
3.00,524.00
3.00,524.00
3.00,526.00
3.00,526.00
3.00,530.00
3.00,533.00
3.00,538.00
3.00,541.00
3.00,548.00
3.00,552.00
3.00,553.00
3.00,553.00
3.00,557.00
3.00,555.00
3.00,557.00
3.00,553.00
3.00,548.00
3.00,546.00
3.00,539.00
3.00,538.00
3.00,535.00
3.00,532.00
3.00,531.00
3.00,533.00
3.00,540.00
3.00,543.00
3.00,546.00
3.00,551.00
3.00,557.00
3.00,561.00
3.00,566.00
3.00,572.00
3.00,571.00
3.00,574.00
3.00,573.00
3.00,573.00
3.00,572.00
3.00,567.00
3.00,563.00
3.00,559.00
3.00,556.00
3.00,552.00
3.00,550.00
3.00,551.00
3.00,552.00
3.00,556.00
3.00,562.00
3.00,567.00
3.00,576.00
3.00,586.00
3.00,594.00
3.00,606.00
3.00,618.00
3.00,631.00
3.00,643.00
3.00,657.00
3.00,666.00
3.00,671.00
3.00,672.00
3.00,670.00
3.00,668.00
3.00,662.00
3.00,660.00
3.00,659.00
3.00,656.00
3.00,656.00
3.00,656.00
3.00,660.00
3.00,663.00
3.00,667.00
3.00,667.00
3.00,672.00
3.00,677.00
3.00,673.00
3.00,665.00
3.00,636.00
3.00,593.00
3.00,540.00
3.00,476.00
3.00,419.00
3.00,371.00
3.00,335.00
3.00,308.00
3.00,279.00
3.00,254.00
3.00,228.00
3.00,203.00
3.00,181.00
3.00,165.00
3.00,153.00
3.00,147.00
3.00,139.00
3.00,135.00
3.00,133.00
3.00,134.00
3.00,133.00
3.00,134.00
3.00,133.00
3.00,134.00
3.00,129.00
3.00,126.00
3.00,125.00
3.00,121.00
3.00,115.00
3.00,112.00
3.00,106.00
3.00,103.00
3.00,99.00
3.00,94.00
3.00,95.00
3.00,95.00
3.00,107.00
3.00,130.00
3.00,170.00
3.00,228.00
3.00,288.00
3.00,343.00
3.00,386.00
3.00,415.00
3.00,429.00
3.00,433.00
3.00,429.00
3.00,421.00
3.00,418.00
3.00,410.00
3.00,406.00
3.00,401.00
3.00,398.00
3.00,393.00
3.00,389.00
3.00,390.00
3.00,390.00
3.00,391.00
3.00,394.00
3.00,399.00
3.00,403.00
3.00,407.00
3.00,411.00
3.00,414.00
3.00,417.00
3.00,419.00
3.00,419.00
3.00,424.00
3.00,424.00
3.00,420.00
3.00,417.00
3.00,413.00
3.00,413.00
3.00,407.00
3.00,407.00
3.00,406.00
3.00,402.00
3.00,401.00
3.00,399.00
3.00,400.00
3.00,402.00
3.00,403.00
3.00,411.00
3.00,412.00
3.00,418.00
3.00,419.00
3.00,419.00
3.00,421.00
3.00,419.00
3.00,425.00
3.00,420.00
3.00,420.00
3.00,415.00
3.00,412.00
3.00,407.00
3.00,400.00
3.00,397.00
3.00,395.00
3.00,393.00
3.00,390.00
3.00,393.00
3.00,393.00
3.00,397.00
3.00,398.00
3.00,404.00
3.00,406.00
3.00,413.00
3.00,418.00
3.00,421.00
3.00,416.00
3.00,403.00
3.00,381.00
3.00,346.00
3.00,308.00
3.00,260.00
3.00,216.00
3.00,178.00
3.00,141.00
3.00,110.00
3.00,77.00
3.00,43.00
3.00,4.00
3.00,-31.00
3.00,-60.00
3.00,-83.00
3.00,-101.00
3.00,-116.00
3.00,-127.00
3.00,-132.00
3.00,-138.00
3.00,-140.00
3.00,-143.00
3.00,-144.00
3.00,-146.00
3.00,-148.00
3.00,-149.00
3.00,-150.00
3.00,-150.00
3.00,-154.00
3.00,-158.00
3.00,-163.00
3.00,-169.00
3.00,-171.00
3.00,-174.00
3.00,-179.00
3.00,-183.00
3.00,-185.00
3.00,-182.00
3.00,-181.00
3.00,-178.00
3.00,-178.00
3.00,-177.00
3.00,-173.00
3.00,-168.00
3.00,-167.00
3.00,-165.00
3.00,-161.00
3.00,-150.00
3.00,-141.00
3.00,-127.00
3.00,-112.00
3.00,-95.00
3.00,-76.00
3.00,-65.00
3.00,-67.00
3.00,-80.00
3.00,-96.00
3.00,-112.00
3.00,-126.00
3.00,-134.00
3.00,-146.00
3.00,-149.00
3.00,-151.00
3.00,-151.00
3.00,-150.00
3.00,-153.00
3.00,-149.00
3.00,-146.00
3.00,-146.00
3.00,-142.00
3.00,-138.00
3.00,-135.00
3.00,-134.00
3.00,-132.00
3.00,-128.00
3.00,-128.00
3.00,-128.00
3.00,-133.00
3.00,-138.00
3.00,-142.00
3.00,-145.00
3.00,-149.00
3.00,-153.00
3.00,-156.00
3.00,-160.00
3.00,-160.00
3.00,-159.00
3.00,-161.00
3.00,-158.00
3.00,-152.00
3.00,-151.00
3.00,-147.00
3.00,-146.00
3.00,-145.00
3.00,-143.00
3.00,-141.00
3.00,-140.00
3.00,-140.00
3.00,-142.00
3.00,-143.00
3.00,-146.00
3.00,-150.00
3.00,-154.00
3.00,-158.00
3.00,-165.00
3.00,-169.00
3.00,-172.00
3.00,-173.00
3.00,-167.00
3.00,-156.00
3.00,-134.00
3.00,-107.00
3.00,-68.00
3.00,-18.00
3.00,36.00
3.00,90.00
3.00,135.00
3.00,178.00
3.00,201.00
3.00,214.00
3.00,219.00
3.00,216.00
3.00,213.00
3.00,213.00
3.00,215.00
3.00,212.00
3.00,210.00
3.00,205.00
3.00,201.00
3.00,199.00
3.00,195.00
3.00,191.00
3.00,188.00
3.00,187.00
3.00,189.00
3.00,190.00
3.00,193.00
3.00,197.00
3.00,201.00
3.00,207.00
3.00,211.00
3.00,219.00
3.00,222.00
3.00,224.00
3.00,228.00
3.00,231.00
3.00,234.00
3.00,235.00
3.00,237.00
3.00,239.00
3.00,238.00
3.00,235.00
3.00,232.00
3.00,230.00
3.00,226.00
3.00,224.00
3.00,224.00
3.00,221.00
3.00,218.00
3.00,221.00
3.00,224.00
3.00,227.00
3.00,228.00
3.00,234.00
3.00,239.00
3.00,241.00
3.00,248.00
3.00,253.00
3.00,258.00
3.00,263.00
3.00,265.00
3.00,267.00
3.00,271.00
3.00,270.00
3.00,271.00
3.00,268.00
3.00,269.00
3.00,263.00
3.00,263.00
3.00,259.00
3.00,259.00
3.00,257.00
3.00,259.00
3.00,259.00
3.00,262.00
3.00,264.00
3.00,268.00
3.00,277.00
3.00,278.00
3.00,283.00
3.00,290.00
3.00,291.00
3.00,300.00
3.00,303.00
3.00,312.00
3.00,314.00
3.00,319.00
3.00,320.00
3.00,322.00
3.00,325.00
3.00,319.00
3.00,318.00
3.00,316.00
3.00,311.00
3.00,311.00
3.00,309.00
3.00,307.00
3.00,308.00
3.00,308.00
3.00,305.00
3.00,307.00
3.00,312.00
3.00,317.00
3.00,319.00
3.00,324.00
3.00,327.00
3.00,333.00
3.00,338.00
3.00,342.00
3.00,344.00
3.00,344.00
3.00,345.00
3.00,346.00
3.00,348.00
3.00,346.00
3.00,345.00
3.00,346.00
3.00,339.00
3.00,336.00
3.00,336.00
3.00,330.00
3.00,331.00
3.00,333.00
3.00,331.00
3.00,331.00
3.00,332.00
3.00,340.00
3.00,342.00
3.00,346.00
3.00,351.00
3.00,354.00
3.00,357.00
3.00,360.00
3.00,362.00
3.00,367.00
3.00,367.00
3.00,372.00
3.00,375.00
3.00,376.00
3.00,376.00
3.00,374.00
3.00,372.00
3.00,367.00
3.00,365.00
3.00,361.00
3.00,360.00
3.00,359.00
3.00,357.00
3.00,356.00
3.00,355.00
3.00,356.00
3.00,357.00
3.00,359.00
3.00,363.00
3.00,364.00
3.00,368.00
3.00,367.00
3.00,365.00
3.00,362.00
3.00,366.00
3.00,365.00
3.00,365.00
3.00,368.00
3.00,369.00
3.00,369.00
3.00,373.00
3.00,372.00
3.00,376.00
3.00,374.00
3.00,373.00
3.00,373.00
3.00,371.00
3.00,369.00
3.00,368.00
3.00,368.00
3.00,370.00
3.00,371.00
3.00,375.00
3.00,379.00
3.00,386.00
3.00,392.00
3.00,395.00
3.00,401.00
3.00,408.00
3.00,414.00
3.00,419.00
3.00,423.00
3.00,429.00
3.00,433.00
3.00,437.00
3.00,442.00
3.00,443.00
3.00,443.00
3.00,440.00
3.00,442.00
3.00,440.00
3.00,437.00
3.00,436.00
3.00,430.00
3.00,432.00
3.00,430.00
3.00,432.00
3.00,431.00
3.00,431.00
3.00,434.00
3.00,435.00
3.00,439.00
3.00,441.00
3.00,444.00
3.00,450.00
3.00,452.00
3.00,457.00
3.00,457.00
3.00,459.00
3.00,462.00
3.00,464.00
3.00,467.00
3.00,465.00
3.00,463.00
3.00,465.00
3.00,464.00
3.00,460.00
3.00,458.00
3.00,454.00
3.00,452.00
3.00,449.00
3.00,445.00
3.00,447.00
3.00,454.00
3.00,464.00
3.00,483.00
3.00,507.00
3.00,532.00
3.00,557.00
3.00,577.00
3.00,596.00
3.00,608.00
3.00,612.00
3.00,609.00
3.00,602.00
3.00,597.00
3.00,595.00
3.00,595.00
3.00,595.00
3.00,593.00
3.00,590.00
3.00,586.00
3.00,588.00
3.00,581.00
3.00,581.00
3.00,579.00
3.00,572.00
3.00,567.00
3.00,564.00
3.00,560.00
3.00,554.00
3.00,555.00
3.00,553.00
3.00,551.00
3.00,552.00
3.00,553.00
3.00,555.00
3.00,558.00
3.00,559.00
3.00,562.00
3.00,563.00
3.00,569.00
3.00,572.00
3.00,573.00
3.00,576.00
3.00,571.00
3.00,574.00
3.00,579.00
3.00,588.00
3.00,597.00
3.00,596.00
3.00,595.00
3.00,581.00
3.00,565.00
3.00,548.00
3.00,536.00
3.00,529.00
3.00,519.00
3.00,515.00
3.00,512.00
3.00,509.00
3.00,503.00
3.00,501.00
3.00,502.00
3.00,500.00
3.00,501.00
3.00,503.00
3.00,503.00
3.00,503.00
3.00,505.00
3.00,505.00
3.00,507.00
3.00,507.00
3.00,508.00
3.00,508.00
3.00,510.00
3.00,509.00
3.00,507.00
3.00,508.00
3.00,506.00
3.00,502.00
3.00,499.00
3.00,492.00
3.00,489.00
3.00,485.00
3.00,479.00
3.00,477.00
3.00,474.00
3.00,472.00
3.00,466.00
3.00,462.00
3.00,455.00
3.00,450.00
3.00,448.00
3.00,448.00
3.00,446.00
3.00,450.00
3.00,451.00
4.00,107.00
4.00,112.00
4.00,114.00
4.00,119.00
4.00,123.00
4.00,122.00
4.00,122.00
4.00,122.00
4.00,117.00
4.00,118.00
4.00,116.00
4.00,115.00
4.00,118.00
4.00,121.00
4.00,127.00
4.00,129.00
4.00,132.00
4.00,135.00
4.00,135.00
4.00,133.00
4.00,128.00
4.00,127.00
4.00,123.00
4.00,125.00
4.00,123.00
4.00,123.00
4.00,123.00
4.00,126.00
4.00,134.00
4.00,136.00
4.00,139.00
4.00,141.00
4.00,142.00
4.00,140.00
4.00,136.00
4.00,135.00
4.00,131.00
4.00,133.00
4.00,131.00
4.00,131.00
4.00,132.00
4.00,136.00
4.00,135.00
4.00,140.00
4.00,143.00
4.00,143.00
4.00,140.00
4.00,137.00
4.00,134.00
4.00,130.00
4.00,129.00
4.00,126.00
4.00,127.00
4.00,131.00
4.00,129.00
4.00,131.00
4.00,130.00
4.00,131.00
4.00,130.00
4.00,129.00
4.00,129.00
4.00,125.00
4.00,128.00
4.00,126.00
4.00,126.00
4.00,124.00
4.00,128.00
4.00,132.00
4.00,136.00
4.00,139.00
4.00,141.00
4.00,141.00
4.00,141.00
4.00,137.00
4.00,138.00
4.00,135.00
4.00,135.00
4.00,137.00
4.00,137.00
4.00,140.00
4.00,146.00
4.00,147.00
4.00,154.00
4.00,159.00
4.00,161.00
4.00,159.00
4.00,163.00
4.00,159.00
4.00,160.00
4.00,158.00
4.00,159.00
4.00,160.00
4.00,161.00
4.00,163.00
4.00,168.00
4.00,170.00
4.00,177.00
4.00,179.00
4.00,180.00
4.00,183.00
4.00,177.00
4.00,181.00
4.00,177.00
4.00,179.00
4.00,179.00
4.00,182.00
4.00,182.00
4.00,186.00
4.00,188.00
4.00,192.00
4.00,192.00
4.00,193.00
4.00,190.00
4.00,190.00
4.00,184.00
4.00,181.00
4.00,182.00
4.00,179.00
4.00,182.00
4.00,182.00
4.00,182.00
4.00,184.00
4.00,187.00
4.00,187.00
4.00,187.00
4.00,191.00
4.00,190.00
4.00,188.00
4.00,188.00
4.00,185.00
4.00,188.00
4.00,190.00
4.00,192.00
4.00,194.00
4.00,195.00
4.00,198.00
4.00,199.00
4.00,204.00
4.00,209.00
4.00,210.00
4.00,207.00
4.00,206.00
4.00,205.00
4.00,202.00
4.00,201.00
4.00,202.00
4.00,203.00
4.00,208.00
4.00,210.00
4.00,211.00
4.00,214.00
4.00,219.00
4.00,221.00
4.00,221.00
4.00,219.00
4.00,216.00
4.00,213.00
4.00,214.00
4.00,211.00
4.00,209.00
4.00,210.00
4.00,210.00
4.00,212.00
4.00,212.00
4.00,218.00
4.00,219.00
4.00,222.00
4.00,219.00
4.00,216.00
4.00,212.00
4.00,210.00
4.00,207.00
4.00,206.00
4.00,207.00
4.00,208.00
4.00,207.00
4.00,209.00
4.00,216.00
4.00,216.00
4.00,216.00
4.00,220.00
4.00,219.00
4.00,218.00
4.00,220.00
4.00,217.00
4.00,216.00
4.00,220.00
4.00,219.00
4.00,226.00
4.00,228.00
4.00,231.00
4.00,236.00
4.00,240.00
4.00,245.00
4.00,246.00
4.00,245.00
4.00,243.00
4.00,245.00
4.00,242.00
4.00,240.00
4.00,241.00
4.00,243.00
4.00,239.00
4.00,246.00
4.00,247.00
4.00,251.00
4.00,252.00
4.00,258.00
4.00,258.00
4.00,257.00
4.00,260.00
4.00,256.00
4.00,256.00
4.00,255.00
4.00,254.00
4.00,255.00
4.00,254.00
4.00,256.00
4.00,260.00
4.00,260.00
4.00,261.00
4.00,261.00
4.00,259.00
4.00,259.00
4.00,255.00
4.00,251.00
4.00,249.00
4.00,249.00
4.00,252.00
4.00,249.00
4.00,247.00
4.00,249.00
4.00,251.00
4.00,250.00
4.00,254.00
4.00,255.00
4.00,254.00
4.00,252.00
4.00,250.00
4.00,246.00
4.00,242.00
4.00,238.00
4.00,239.00
4.00,239.00
4.00,240.00
4.00,240.00
4.00,241.00
4.00,239.00
4.00,240.00
4.00,237.00
4.00,234.00
4.00,229.00
4.00,229.00
4.00,229.00
4.00,227.00
4.00,229.00
4.00,230.00
4.00,228.00
4.00,230.00
4.00,232.00
4.00,232.00
4.00,234.00
4.00,234.00
4.00,236.00
4.00,234.00
4.00,228.00
4.00,228.00
4.00,227.00
4.00,223.00
4.00,220.00
4.00,219.00
4.00,217.00
4.00,213.00
4.00,217.00
4.00,217.00
4.00,219.00
4.00,220.00
4.00,220.00
4.00,218.00
4.00,217.00
4.00,218.00
4.00,209.00
4.00,205.00
4.00,202.00
4.00,199.00
4.00,200.00
4.00,199.00
4.00,199.00
4.00,203.00
4.00,202.00
4.00,206.00
4.00,205.00
4.00,207.00
4.00,206.00
4.00,204.00
4.00,203.00
4.00,200.00
4.00,201.00
4.00,201.00
4.00,200.00
4.00,201.00
4.00,200.00
4.00,203.00
4.00,210.00
4.00,212.00
4.00,216.00
4.00,218.00
4.00,218.00
4.00,216.00
4.00,215.00
4.00,214.00
4.00,214.00
4.00,216.00
4.00,215.00
4.00,216.00
4.00,214.00
4.00,219.00
4.00,222.00
4.00,224.00
4.00,229.00
4.00,232.00
4.00,236.00
4.00,236.00
4.00,236.00
4.00,236.00
4.00,234.00
4.00,232.00
4.00,233.00
4.00,230.00
4.00,234.00
4.00,236.00
4.00,239.00
4.00,244.00
4.00,248.00
4.00,251.00
4.00,253.00
4.00,252.00
4.00,251.00
4.00,251.00
4.00,247.00
4.00,247.00
4.00,250.00
4.00,254.00
4.00,257.00
4.00,260.00
4.00,266.00
4.00,272.00
4.00,277.00
4.00,287.00
4.00,289.00
4.00,293.00
4.00,295.00
4.00,296.00
4.00,299.00
4.00,296.00
4.00,297.00
4.00,301.00
4.00,305.00
4.00,308.00
4.00,311.00
4.00,315.00
4.00,319.00
4.00,323.00
4.00,327.00
4.00,326.00
4.00,329.00
4.00,325.00
4.00,329.00
4.00,328.00
4.00,322.00
4.00,324.00
4.00,324.00
4.00,328.00
4.00,329.00
4.00,324.00
4.00,327.00
4.00,327.00
4.00,329.00
4.00,331.00
4.00,329.00
4.00,326.00
4.00,326.00
4.00,326.00
4.00,325.00
4.00,321.00
4.00,320.00
4.00,320.00
4.00,320.00
4.00,321.00
4.00,322.00
4.00,328.00
4.00,331.00
4.00,335.00
4.00,336.00
4.00,336.00
4.00,337.00
4.00,340.00
4.00,338.00
4.00,338.00
4.00,337.00
4.00,337.00
4.00,338.00
4.00,339.00
4.00,343.00
4.00,344.00
4.00,344.00
4.00,348.00
4.00,350.00
4.00,351.00
4.00,349.00
4.00,348.00
4.00,343.00
4.00,341.00
4.00,340.00
4.00,338.00
4.00,334.00
4.00,334.00
4.00,332.00
4.00,330.00
4.00,330.00
4.00,329.00
4.00,330.00
4.00,338.00
4.00,353.00
4.00,369.00
4.00,380.00
4.00,382.00
4.00,379.00
4.00,372.00
4.00,351.00
4.00,331.00
4.00,306.00
4.00,272.00
4.00,243.00
4.00,208.00
4.00,174.00
4.00,148.00
4.00,123.00
4.00,104.00
4.00,84.00
4.00,69.00
4.00,56.00
4.00,45.00
4.00,41.00
4.00,39.00
4.00,42.00
4.00,45.00
4.00,52.00
4.00,56.00
4.00,60.00
4.00,65.00
4.00,67.00
4.00,69.00
4.00,69.00
4.00,58.00
4.00,43.00
4.00,11.00
4.00,-18.00
4.00,-45.00
4.00,-62.00
4.00,-79.00
4.00,-90.00
4.00,-106.00
4.00,-119.00
4.00,-135.00
4.00,-142.00
4.00,-152.00
4.00,-157.00
4.00,-163.00
4.00,-169.00
4.00,-176.00
4.00,-178.00
4.00,-185.00
4.00,-186.00
4.00,-185.00
4.00,-190.00
4.00,-189.00
4.00,-189.00
4.00,-186.00
4.00,-183.00
4.00,-182.00
4.00,-180.00
4.00,-179.00
4.00,-178.00
4.00,-180.00
4.00,-184.00
4.00,-188.00
4.00,-192.00
4.00,-195.00
4.00,-197.00
4.00,-195.00
4.00,-197.00
4.00,-199.00
4.00,-196.00
4.00,-194.00
4.00,-196.00
4.00,-192.00
4.00,-193.00
4.00,-191.00
4.00,-193.00
4.00,-195.00
4.00,-198.00
4.00,-199.00
4.00,-199.00
4.00,-201.00
4.00,-200.00
4.00,-202.00
4.00,-200.00
4.00,-197.00
4.00,-197.00
4.00,-193.00
4.00,-190.00
4.00,-189.00
4.00,-184.00
4.00,-189.00
4.00,-188.00
4.00,-190.00
4.00,-193.00
4.00,-196.00
4.00,-197.00
4.00,-197.00
4.00,-195.00
4.00,-195.00
4.00,-190.00
4.00,-191.00
4.00,-185.00
4.00,-181.00
4.00,-176.00
4.00,-174.00
4.00,-174.00
4.00,-172.00
4.00,-168.00
4.00,-145.00
4.00,-94.00
4.00,-34.00
4.00,36.00
4.00,107.00
4.00,184.00
4.00,261.00
4.00,327.00
4.00,374.00
4.00,395.00
4.00,400.00
4.00,396.00
4.00,388.00
4.00,382.00
4.00,373.00
4.00,367.00
4.00,363.00
4.00,357.00
4.00,354.00
4.00,346.00
4.00,345.00
4.00,341.00
4.00,341.00
4.00,339.00
4.00,341.00
4.00,344.00
4.00,348.00
4.00,348.00
4.00,348.00
4.00,349.00
4.00,348.00
4.00,345.00
4.00,346.00
4.00,343.00
4.00,343.00
4.00,344.00
4.00,348.00
4.00,345.00
4.00,347.00
4.00,350.00
4.00,352.00
4.00,354.00
4.00,358.00
4.00,356.00
4.00,357.00
4.00,352.00
4.00,351.00
4.00,349.00
4.00,348.00
4.00,349.00
4.00,352.00
4.00,363.00
4.00,369.00
4.00,375.00
4.00,377.00
4.00,375.00
4.00,383.00
4.00,379.00
4.00,380.00
4.00,373.00
4.00,362.00
4.00,355.00
4.00,347.00
4.00,344.00
4.00,341.00
4.00,340.00
4.00,340.00
4.00,338.00
4.00,338.00
4.00,338.00
4.00,337.00
4.00,339.00
4.00,343.00
4.00,349.00
4.00,353.00
4.00,358.00
4.00,366.00
4.00,366.00
4.00,372.00
4.00,371.00
4.00,374.00
4.00,376.00
4.00,378.00
4.00,385.00
4.00,389.00
4.00,396.00
4.00,399.00
4.00,406.00
4.00,410.00
4.00,417.00
4.00,420.00
4.00,429.00
4.00,434.00
4.00,438.00
4.00,440.00
4.00,443.00
4.00,440.00
4.00,443.00
4.00,444.00
4.00,444.00
4.00,445.00
4.00,447.00
4.00,450.00
4.00,452.00
4.00,452.00
4.00,455.00
4.00,457.00
4.00,461.00
4.00,462.00
4.00,463.00
4.00,465.00
4.00,466.00
4.00,466.00
4.00,466.00
4.00,471.00
4.00,479.00
4.00,499.00
4.00,530.00
4.00,566.00
4.00,610.00
4.00,660.00
4.00,714.00
4.00,768.00
4.00,809.00
4.00,840.00
4.00,853.00
4.00,852.00
4.00,849.00
4.00,843.00
4.00,843.00
4.00,845.00
4.00,845.00
4.00,843.00
4.00,846.00
4.00,851.00
4.00,851.00
4.00,857.00
4.00,861.00
4.00,866.00
4.00,872.00
4.00,870.00
4.00,873.00
4.00,874.00
4.00,879.00
4.00,882.00
4.00,886.00
4.00,892.00
4.00,897.00
4.00,903.00
4.00,907.00
4.00,912.00
4.00,916.00
4.00,921.00
4.00,926.00
4.00,933.00
4.00,942.00
4.00,947.00
4.00,952.00
4.00,955.00
4.00,957.00
4.00,956.00
4.00,958.00
4.00,956.00
4.00,963.00
4.00,966.00
4.00,972.00
4.00,979.00
4.00,987.00
4.00,996.00
4.00,1002.00
4.00,1010.00
4.00,1016.00
4.00,1031.00
4.00,1052.00
4.00,1086.00
4.00,1129.00
4.00,1168.00
4.00,1207.00
4.00,1232.00
4.00,1252.00
4.00,1260.00
4.00,1264.00
4.00,1271.00
4.00,1272.00
4.00,1277.00
4.00,1281.00
4.00,1291.00
4.00,1298.00
4.00,1305.00
4.00,1310.00
4.00,1315.00
4.00,1320.00
4.00,1322.00
4.00,1324.00
4.00,1331.00
4.00,1333.00
4.00,1337.00
4.00,1345.00
4.00,1349.00
4.00,1356.00
4.00,1361.00
4.00,1365.00
4.00,1371.00
4.00,1376.00
4.00,1384.00
4.00,1388.00
4.00,1393.00
4.00,1396.00
4.00,1400.00
4.00,1400.00
4.00,1400.00
4.00,1400.00
4.00,1403.00
4.00,1405.00
4.00,1408.00
4.00,1409.00
4.00,1414.00
4.00,1417.00
4.00,1421.00
4.00,1424.00
4.00,1426.00
4.00,1431.00
4.00,1430.00
4.00,1431.00
4.00,1435.00
4.00,1433.00
4.00,1434.00
4.00,1432.00
4.00,1434.00
4.00,1434.00
4.00,1437.00
4.00,1441.00
4.00,1443.00
4.00,1444.00
4.00,1447.00
4.00,1451.00
4.00,1453.00
4.00,1458.00
4.00,1461.00
4.00,1463.00
4.00,1464.00
4.00,1464.00
4.00,1465.00
4.00,1465.00
4.00,1461.00
4.00,1465.00
4.00,1464.00
4.00,1463.00
4.00,1463.00
4.00,1464.00
4.00,1467.00
4.00,1472.00
4.00,1479.00
4.00,1483.00
4.00,1489.00
4.00,1493.00
4.00,1494.00
4.00,1494.00
4.00,1491.00
4.00,1475.00
4.00,1445.00
4.00,1404.00
4.00,1361.00
4.00,1314.00
4.00,1266.00
4.00,1223.00
4.00,1184.00
4.00,1151.00
4.00,1122.00
4.00,1103.00
4.00,1088.00
4.00,1076.00
4.00,1071.00
4.00,1065.00
4.00,1065.00
4.00,1062.00
4.00,1065.00
4.00,1064.00
4.00,1064.00
4.00,1066.00
4.00,1070.00
4.00,1075.00
4.00,1077.00
4.00,1086.00
4.00,1087.00
4.00,1095.00
4.00,1097.00
4.00,1098.00
4.00,1102.00
4.00,1105.00
4.00,1103.00
4.00,1106.00
4.00,1102.00
4.00,1100.00
4.00,1099.00
4.00,1097.00
4.00,1093.00
4.00,1096.00
4.00,1096.00
4.00,1101.00
4.00,1098.00
4.00,1083.00
4.00,1049.00
4.00,1004.00
4.00,948.00
4.00,897.00
4.00,851.00
4.00,815.00
4.00,790.00
4.00,771.00
4.00,756.00
4.00,739.00
4.00,724.00
4.00,715.00
4.00,707.00
4.00,704.00
4.00,701.00
4.00,701.00
4.00,705.00
4.00,704.00
4.00,709.00
4.00,712.00
4.00,716.00
4.00,720.00
4.00,724.00
4.00,727.00
4.00,728.00
4.00,731.00
4.00,729.00
4.00,728.00
4.00,728.00
4.00,730.00
4.00,730.00
4.00,735.00
4.00,734.00
4.00,740.00
4.00,742.00
4.00,746.00
4.00,753.00
4.00,755.00
4.00,760.00
4.00,759.00
4.00,762.00
4.00,759.00
4.00,760.00
4.00,760.00
4.00,762.00
4.00,761.00
4.00,765.00
4.00,764.00
4.00,768.00
4.00,769.00
4.00,773.00
4.00,774.00
4.00,778.00
4.00,779.00
4.00,782.00
4.00,785.00
4.00,784.00
4.00,785.00
4.00,786.00
4.00,782.00
4.00,780.00
4.00,777.00
4.00,775.00
4.00,775.00
4.00,778.00
4.00,779.00
4.00,778.00
4.00,781.00
4.00,783.00
4.00,787.00
4.00,791.00
4.00,792.00
4.00,796.00
4.00,794.00
4.00,793.00
4.00,790.00
4.00,790.00
4.00,787.00
4.00,785.00
4.00,786.00
4.00,785.00
4.00,785.00
4.00,783.00
4.00,784.00
4.00,786.00
4.00,786.00
4.00,790.00
4.00,790.00
4.00,791.00
4.00,793.00
4.00,796.00
4.00,795.00
4.00,788.00
4.00,788.00
4.00,787.00
4.00,782.00
4.00,780.00
4.00,775.00
4.00,778.00
4.00,774.00
4.00,775.00
4.00,771.00
4.00,770.00
4.00,769.00
4.00,769.00
4.00,769.00
4.00,771.00
4.00,771.00
4.00,768.00
4.00,766.00
4.00,765.00
4.00,765.00
4.00,763.00
4.00,762.00
4.00,759.00
4.00,759.00
4.00,754.00
4.00,746.00
4.00,734.00
4.00,722.00
4.00,720.00
4.00,729.00
4.00,743.00
4.00,753.00
4.00,762.00
4.00,764.00
4.00,756.00
4.00,744.00
4.00,726.00
4.00,711.00
4.00,697.00
4.00,685.00
4.00,677.00
4.00,674.00
4.00,668.00
4.00,665.00
4.00,660.00
4.00,661.00
4.00,658.00
4.00,661.00
4.00,662.00
4.00,661.00
4.00,663.00
4.00,657.00
4.00,655.00
4.00,651.00
4.00,647.00
4.00,641.00
4.00,633.00
4.00,631.00
4.00,625.00
4.00,624.00
4.00,624.00
4.00,623.00
4.00,623.00
4.00,620.00
4.00,621.00
4.00,619.00
4.00,613.00
4.00,606.00
4.00,588.00
4.00,574.00
4.00,556.00
4.00,541.00
4.00,535.00
4.00,530.00
4.00,523.00
4.00,514.00
4.00,508.00
4.00,505.00
4.00,501.00
4.00,503.00
4.00,500.00
4.00,503.00
4.00,505.00
4.00,505.00
4.00,510.00
4.00,512.00
4.00,511.00
4.00,510.00
4.00,509.00
4.00,509.00
4.00,506.00
4.00,508.00
4.00,505.00
4.00,501.00
4.00,497.00
4.00,497.00
4.00,495.00
4.00,492.00
4.00,492.00
4.00,492.00
4.00,493.00
4.00,497.00
4.00,500.00
4.00,501.00
4.00,504.00
4.00,502.00
4.00,502.00
4.00,499.00
4.00,476.00
4.00,439.00
4.00,376.00
4.00,295.00
4.00,212.00
4.00,123.00
4.00,45.00
4.00,-24.00
4.00,-80.00
4.00,-122.00
4.00,-154.00
4.00,-188.00
4.00,-220.00
4.00,-251.00
4.00,-275.00
4.00,-298.00
4.00,-319.00
4.00,-336.00
4.00,-352.00
4.00,-363.00
4.00,-375.00
4.00,-383.00
4.00,-386.00
4.00,-394.00
4.00,-393.00
4.00,-393.00
4.00,-392.00
4.00,-391.00
4.00,-392.00
4.00,-390.00
4.00,-386.00
4.00,-386.00
4.00,-382.00
4.00,-380.00
4.00,-378.00
4.00,-380.00
4.00,-379.00
4.00,-382.00
4.00,-383.00
4.00,-384.00
4.00,-388.00
4.00,-388.00
4.00,-387.00
4.00,-390.00
4.00,-389.00
4.00,-391.00
4.00,-393.00
4.00,-392.00
4.00,-393.00
4.00,-390.00
4.00,-391.00
4.00,-391.00
4.00,-392.00
4.00,-390.00
4.00,-391.00
4.00,-396.00
4.00,-399.00
4.00,-404.00
4.00,-406.00
4.00,-411.00
4.00,-412.00
4.00,-411.00
4.00,-412.00
4.00,-412.00
4.00,-412.00
4.00,-411.00
4.00,-409.00
4.00,-409.00
4.00,-406.00
4.00,-406.00
4.00,-403.00
4.00,-400.00
4.00,-403.00
4.00,-398.00
4.00,-389.00
4.00,-366.00
4.00,-330.00
4.00,-290.00
4.00,-256.00
4.00,-223.00
4.00,-189.00
4.00,-164.00
4.00,-153.00
4.00,-155.00
4.00,-173.00
4.00,-184.00
4.00,-196.00
4.00,-202.00
4.00,-207.00
4.00,-209.00
4.00,-215.00
4.00,-220.00
4.00,-230.00
4.00,-233.00
4.00,-239.00
4.00,-243.00
4.00,-246.00
4.00,-250.00
4.00,-254.00
4.00,-256.00
4.00,-258.00
4.00,-256.00
4.00,-257.00
4.00,-257.00
4.00,-256.00
4.00,-258.00
4.00,-258.00
4.00,-258.00
4.00,-261.00
4.00,-258.00
4.00,-260.00
4.00,-264.00
4.00,-265.00
4.00,-267.00
4.00,-268.00
4.00,-275.00
4.00,-278.00
4.00,-278.00
4.00,-281.00
4.00,-282.00
4.00,-283.00
4.00,-286.00
4.00,-290.00
4.00,-288.00
4.00,-288.00
4.00,-291.00
4.00,-285.00
4.00,-274.00
4.00,-254.00
4.00,-225.00
4.00,-202.00
4.00,-183.00
4.00,-170.00
4.00,-166.00
4.00,-172.00
4.00,-181.00
4.00,-188.00
4.00,-192.00
4.00,-192.00
4.00,-190.00
4.00,-191.00
4.00,-189.00
4.00,-188.00
4.00,-187.00
4.00,-192.00
4.00,-186.00
4.00,-187.00
4.00,-186.00
4.00,-183.00
4.00,-181.00
4.00,-185.00
4.00,-183.00
4.00,-184.00
4.00,-183.00
4.00,-187.00
4.00,-185.00
4.00,-186.00
4.00,-185.00
4.00,-185.00
4.00,-185.00
4.00,-182.00
4.00,-181.00
4.00,-178.00
4.00,-175.00
4.00,-175.00
4.00,-171.00
4.00,-168.00
4.00,-165.00
4.00,-166.00
4.00,-167.00
4.00,-167.00
4.00,-168.00
4.00,-166.00
4.00,-169.00
4.00,-164.00
4.00,-161.00
4.00,-153.00
4.00,-127.00
4.00,-70.00
4.00,14.00
4.00,122.00
4.00,234.00
4.00,353.00
4.00,458.00
4.00,549.00
4.00,623.00
4.00,669.00
4.00,689.00
4.00,687.00
4.00,680.00
4.00,674.00
4.00,673.00
4.00,674.00
4.00,673.00
4.00,674.00
4.00,674.00
4.00,679.00
4.00,682.00
4.00,683.00
4.00,689.00
4.00,689.00
4.00,693.00
4.00,698.00
4.00,702.00
4.00,706.00
4.00,716.00
4.00,719.00
4.00,723.00
4.00,728.00
4.00,729.00
4.00,729.00
4.00,733.00
4.00,732.00
4.00,734.00
4.00,739.00
4.00,741.00
4.00,746.00
4.00,749.00
4.00,751.00
4.00,754.00
4.00,760.00
4.00,764.00
4.00,769.00
4.00,783.00
4.00,816.00
4.00,888.00
4.00,986.00
4.00,1096.00
4.00,1207.00
4.00,1311.00
4.00,1401.00
4.00,1475.00
4.00,1525.00
4.00,1548.00
4.00,1549.00
4.00,1548.00
4.00,1546.00
4.00,1548.00
4.00,1553.00
4.00,1560.00
4.00,1562.00
4.00,1568.00
4.00,1571.00
4.00,1576.00
4.00,1581.00
4.00,1589.00
4.00,1590.00
4.00,1594.00
4.00,1596.00
4.00,1597.00
4.00,1599.00
4.00,1600.00
4.00,1601.00
4.00,1600.00
4.00,1601.00
4.00,1603.00
4.00,1604.00
4.00,1610.00
4.00,1609.00
4.00,1617.00
4.00,1617.00
4.00,1621.00
4.00,1628.00
4.00,1631.00
4.00,1637.00
4.00,1640.00
4.00,1642.00
4.00,1642.00
4.00,1643.00
4.00,1646.00
4.00,1645.00
4.00,1648.00
4.00,1651.00
4.00,1655.00
4.00,1657.00
4.00,1660.00
4.00,1663.00
4.00,1664.00
4.00,1667.00
4.00,1676.00
4.00,1685.00
4.00,1687.00
4.00,1683.00
4.00,1666.00
4.00,1649.00
4.00,1632.00
4.00,1617.00
4.00,1613.00
4.00,1610.00
4.00,1607.00
4.00,1605.00
4.00,1602.00
4.00,1600.00
4.00,1596.00
4.00,1596.00
4.00,1597.00
4.00,1598.00
4.00,1598.00
4.00,1599.00
4.00,1594.00
4.00,1569.00
4.00,1520.00
4.00,1447.00
4.00,1360.00
4.00,1269.00
4.00,1192.00
4.00,1124.00
4.00,1063.00
4.00,1013.00
4.00,969.00
4.00,933.00
4.00,904.00
4.00,873.00
4.00,848.00
4.00,823.00
4.00,804.00
4.00,790.00
4.00,777.00
4.00,775.00
4.00,770.00
4.00,771.00
4.00,772.00
4.00,775.00
4.00,780.00
4.00,779.00
4.00,782.00
4.00,785.00
4.00,787.00
4.00,785.00
4.00,784.00
4.00,783.00
4.00,780.00
4.00,779.00
4.00,777.00
4.00,774.00
4.00,773.00
4.00,773.00
4.00,771.00
4.00,769.00
4.00,767.00
4.00,770.00
4.00,768.00
4.00,771.00
4.00,774.00
4.00,776.00
4.00,776.00
4.00,779.00
4.00,779.00
4.00,778.00
4.00,769.00
4.00,749.00
4.00,724.00
4.00,701.00
4.00,686.00
4.00,677.00
4.00,670.00
4.00,672.00
4.00,668.00
4.00,663.00
4.00,661.00
4.00,657.00
4.00,652.00
4.00,651.00
4.00,650.00
4.00,649.00
4.00,653.00
4.00,654.00
4.00,654.00
4.00,655.00
4.00,655.00
4.00,654.00
4.00,655.00
4.00,655.00
4.00,656.00
4.00,655.00
4.00,656.00
4.00,656.00
4.00,655.00
4.00,659.00
4.00,658.00
4.00,660.00
4.00,663.00
4.00,662.00
4.00,664.00
4.00,668.00
4.00,674.00
4.00,679.00
4.00,676.00
4.00,678.00
4.00,678.00
4.00,683.00
4.00,681.00
4.00,682.00
4.00,681.00
4.00,679.00
4.00,680.00
4.00,676.00
4.00,677.00
4.00,676.00
4.00,674.00
4.00,673.00
4.00,671.00
4.00,674.00
4.00,678.00
4.00,678.00
4.00,683.00
4.00,682.00
4.00,687.00
4.00,688.00
4.00,691.00
4.00,695.00
4.00,697.00
4.00,695.00
4.00,695.00
4.00,699.00
4.00,697.00
4.00,694.00
4.00,693.00
4.00,691.00
4.00,691.00
4.00,693.00
4.00,693.00
4.00,696.00
4.00,698.00
4.00,701.00
4.00,703.00
4.00,705.00
4.00,708.00
4.00,710.00
4.00,714.00
4.00,718.00
4.00,719.00
4.00,722.00
4.00,721.00
4.00,723.00
4.00,721.00
4.00,723.00
4.00,723.00
4.00,722.00
4.00,724.00
4.00,727.00
4.00,732.00
4.00,735.00
4.00,741.00
4.00,747.00
4.00,755.00
4.00,766.00
4.00,776.00
4.00,788.00
4.00,805.00
4.00,822.00
4.00,842.00
4.00,856.00
4.00,866.00
4.00,874.00
4.00,878.00
4.00,878.00
4.00,878.00
4.00,879.00
4.00,878.00
4.00,876.00
4.00,876.00
4.00,874.00
4.00,875.00
4.00,873.00
4.00,876.00
4.00,875.00
4.00,872.00
4.00,875.00
4.00,878.00
4.00,889.00
4.00,888.00
4.00,881.00
4.00,865.00
4.00,848.00
4.00,824.00
4.00,804.00
4.00,778.00
4.00,751.00
4.00,712.00
4.00,678.00
4.00,634.00
4.00,593.00
4.00,564.00
4.00,539.00
4.00,523.00
4.00,510.00
4.00,497.00
4.00,485.00
4.00,477.00
4.00,472.00
4.00,468.00
4.00,469.00
4.00,467.00
4.00,465.00
4.00,466.00
4.00,460.00
4.00,461.00
4.00,456.00
4.00,455.00
4.00,453.00
4.00,450.00
4.00,450.00
4.00,444.00
4.00,441.00
4.00,437.00
4.00,439.00
4.00,461.00
4.00,509.00
4.00,584.00
4.00,671.00
4.00,762.00
4.00,839.00
4.00,892.00
4.00,929.00
4.00,939.00
4.00,942.00
4.00,933.00
4.00,925.00
4.00,919.00
4.00,917.00
4.00,916.00
4.00,912.00
4.00,908.00
4.00,905.00
4.00,901.00
4.00,900.00
4.00,897.00
4.00,894.00
4.00,895.00
4.00,893.00
4.00,890.00
4.00,891.00
4.00,892.00
4.00,894.00
4.00,896.00
4.00,895.00
4.00,896.00
4.00,899.00
4.00,899.00
4.00,898.00
4.00,899.00
4.00,898.00
4.00,898.00
4.00,896.00
4.00,898.00
4.00,897.00
4.00,894.00
4.00,896.00
4.00,894.00
4.00,892.00
4.00,887.00
4.00,877.00
4.00,873.00
4.00,870.00
4.00,873.00
4.00,873.00
4.00,877.00
4.00,878.00
4.00,873.00
4.00,879.00
4.00,872.00
4.00,874.00
4.00,874.00
4.00,870.00
4.00,870.00
4.00,868.00
4.00,866.00
4.00,866.00
4.00,864.00
4.00,867.00
4.00,863.00
4.00,865.00
4.00,864.00
4.00,865.00
4.00,866.00
4.00,866.00
4.00,868.00
4.00,864.00
4.00,852.00
4.00,819.00
4.00,763.00
4.00,691.00
4.00,599.00
4.00,506.00
4.00,418.00
4.00,328.00
4.00,252.00
4.00,182.00
4.00,130.00
4.00,83.00
4.00,39.00
4.00,-5.00
4.00,-45.00
4.00,-77.00
4.00,-115.00
4.00,-140.00
4.00,-164.00
4.00,-187.00
4.00,-203.00
4.00,-217.00
4.00,-228.00
4.00,-239.00
4.00,-245.00
4.00,-250.00
4.00,-252.00
4.00,-256.00
4.00,-256.00
4.00,-257.00
4.00,-259.00
4.00,-261.00
4.00,-264.00
4.00,-263.00
4.00,-265.00
4.00,-267.00
4.00,-271.00
4.00,-274.00
4.00,-279.00
4.00,-279.00
4.00,-281.00
4.00,-281.00
4.00,-281.00
4.00,-282.00
4.00,-279.00
4.00,-280.00
4.00,-278.00
4.00,-281.00
4.00,-284.00
4.00,-283.00
4.00,-295.00
4.00,-299.00
4.00,-311.00
4.00,-318.00
4.00,-325.00
4.00,-324.00
4.00,-323.00
4.00,-328.00
4.00,-341.00
4.00,-353.00
4.00,-370.00
4.00,-379.00
4.00,-393.00
4.00,-401.00
4.00,-408.00
4.00,-411.00
4.00,-414.00
4.00,-419.00
4.00,-420.00
4.00,-422.00
4.00,-426.00
4.00,-424.00
4.00,-424.00
4.00,-425.00
4.00,-424.00
4.00,-421.00
4.00,-423.00
4.00,-419.00
4.00,-416.00
4.00,-420.00
4.00,-422.00
4.00,-425.00
4.00,-430.00
4.00,-433.00
4.00,-432.00
4.00,-441.00
4.00,-440.00
4.00,-441.00
4.00,-443.00
4.00,-448.00
4.00,-449.00
4.00,-451.00
4.00,-450.00
4.00,-452.00
4.00,-452.00
4.00,-449.00
4.00,-450.00
4.00,-449.00
4.00,-450.00
4.00,-450.00
4.00,-450.00
4.00,-450.00
4.00,-451.00
4.00,-453.00
4.00,-456.00
4.00,-457.00
4.00,-457.00
4.00,-458.00
4.00,-459.00
4.00,-452.00
4.00,-419.00
4.00,-367.00
4.00,-285.00
4.00,-185.00
4.00,-70.00
4.00,44.00
4.00,145.00
4.00,232.00
4.00,299.00
4.00,349.00
4.00,372.00
4.00,377.00
4.00,375.00
4.00,368.00
4.00,367.00
4.00,365.00
4.00,367.00
4.00,366.00
4.00,364.00
4.00,361.00
4.00,356.00
4.00,355.00
4.00,350.00
4.00,347.00
4.00,343.00
4.00,339.00
4.00,340.00
4.00,337.00
4.00,335.00
4.00,338.00
4.00,341.00
4.00,342.00
4.00,340.00
4.00,345.00
4.00,349.00
4.00,349.00
4.00,352.00
4.00,352.00
4.00,352.00
4.00,354.00
4.00,356.00
4.00,364.00
4.00,367.00
4.00,369.00
4.00,369.00
4.00,369.00
4.00,367.00
4.00,365.00
4.00,365.00
4.00,361.00
4.00,364.00
4.00,363.00
4.00,366.00
4.00,367.00
4.00,368.00
4.00,368.00
4.00,371.00
4.00,374.00
4.00,374.00
4.00,375.00
4.00,377.00
4.00,379.00
4.00,384.00
4.00,385.00
4.00,390.00
4.00,397.00
4.00,395.00
4.00,399.00
4.00,403.00
4.00,401.00
4.00,403.00
4.00,403.00
4.00,405.00
4.00,405.00
4.00,406.00
4.00,407.00
4.00,405.00
4.00,410.00
4.00,411.00
4.00,412.00
4.00,415.00
4.00,418.00
4.00,421.00
4.00,423.00
4.00,425.00
4.00,429.00
4.00,430.00
4.00,436.00
4.00,437.00
4.00,442.00
4.00,445.00
4.00,449.00
4.00,451.00
4.00,450.00
4.00,453.00
4.00,450.00
4.00,450.00
4.00,454.00
4.00,453.00
4.00,456.00
4.00,454.00
4.00,455.00
4.00,455.00
4.00,457.00
4.00,457.00
4.00,456.00
4.00,458.00
4.00,456.00
4.00,459.00
4.00,464.00
4.00,468.00
4.00,469.00
4.00,468.00
4.00,473.00
4.00,472.00
4.00,479.00
4.00,481.00
4.00,480.00
4.00,484.00
4.00,484.00
4.00,483.00
4.00,485.00
4.00,482.00
4.00,482.00
4.00,481.00
4.00,483.00
4.00,484.00
4.00,484.00
4.00,485.00
4.00,488.00
4.00,490.00
4.00,493.00
4.00,493.00
4.00,495.00
4.00,493.00
4.00,496.00
4.00,499.00
4.00,500.00
4.00,504.00
4.00,508.00
4.00,512.00
4.00,515.00
4.00,518.00
4.00,518.00
4.00,517.00
4.00,519.00
4.00,519.00
4.00,520.00
4.00,518.00
4.00,520.00
4.00,518.00
4.00,518.00
4.00,518.00
4.00,517.00
4.00,519.00
4.00,519.00
4.00,516.00
4.00,521.00
4.00,522.00
4.00,523.00
4.00,522.00
4.00,528.00
4.00,529.00
4.00,530.00
4.00,529.00
4.00,534.00
4.00,534.00
4.00,537.00
4.00,540.00
4.00,540.00
4.00,542.00
4.00,543.00
4.00,542.00
4.00,544.00
4.00,543.00
4.00,544.00
4.00,545.00
4.00,543.00
4.00,546.00
4.00,550.00
4.00,548.00
4.00,552.00
4.00,549.00
4.00,554.00
4.00,559.00
4.00,555.00
4.00,564.00
4.00,567.00
4.00,572.00
4.00,578.00
4.00,581.00
4.00,586.00
4.00,585.00
4.00,588.00
4.00,591.00
4.00,592.00
4.00,595.00
4.00,592.00
4.00,596.00
4.00,594.00
4.00,595.00
4.00,596.00
4.00,595.00
4.00,597.00
4.00,593.00
4.00,593.00
4.00,594.00
4.00,594.00
4.00,592.00
4.00,592.00
4.00,594.00
4.00,594.00
4.00,595.00
4.00,596.00
4.00,596.00
4.00,594.00
4.00,596.00
4.00,593.00
4.00,595.00
4.00,597.00
4.00,599.00
4.00,599.00
4.00,602.00
4.00,601.00
4.00,600.00
4.00,602.00
4.00,600.00
4.00,600.00
4.00,604.00
4.00,620.00
4.00,663.00
4.00,733.00
4.00,832.00
4.00,930.00
4.00,1023.00
4.00,1106.00
4.00,1163.00
4.00,1189.00
4.00,1193.00
4.00,1181.00
4.00,1159.00
4.00,1141.00
4.00,1132.00
4.00,1123.00
4.00,1122.00
4.00,1118.00
4.00,1118.00
4.00,1114.00
4.00,1108.00
4.00,1108.00
4.00,1101.00
4.00,1098.00
4.00,1097.00
4.00,1093.00
4.00,1092.00
4.00,1090.00
4.00,1089.00
4.00,1087.00
4.00,1085.00
4.00,1084.00
4.00,1084.00
4.00,1081.00
4.00,1082.00
4.00,1081.00
4.00,1081.00
4.00,1083.00
4.00,1083.00
4.00,1082.00
4.00,1082.00
4.00,1070.00
4.00,1047.00
4.00,1008.00
4.00,965.00
4.00,926.00
4.00,883.00
4.00,846.00
4.00,831.00
4.00,826.00
4.00,828.00
4.00,823.00
4.00,818.00
4.00,809.00
4.00,800.00
4.00,786.00
4.00,778.00
4.00,770.00
4.00,761.00
4.00,756.00
4.00,750.00
4.00,745.00
4.00,741.00
4.00,737.00
4.00,729.00
4.00,725.00
4.00,721.00
4.00,716.00
4.00,713.00
4.00,707.00
4.00,707.00
4.00,701.00
4.00,703.00
4.00,698.00
4.00,698.00
4.00,697.00
4.00,694.00
4.00,690.00
4.00,690.00
4.00,688.00
4.00,685.00
4.00,681.00
4.00,680.00
4.00,680.00
4.00,675.00
4.00,671.00
4.00,660.00
4.00,646.00
4.00,634.00
4.00,630.00
4.00,622.00
4.00,617.00
4.00,615.00
4.00,611.00
4.00,607.00
4.00,605.00
4.00,602.00
